point,value
1,-99
2,-106
3,-110
4,-108
5,-101
6,-90
7,-75
8,-57
9,-37
10,-17
11,3
12,22
13,39
14,55
15,69
16,82
17,92
18,100
19,106
20,110
21,113
22,113
23,112
24,110
25,106
26,102
27,96
28,90
29,84
30,78
31,72
32,66
33,60
34,55
35,51
36,48
37,46
38,44
39,44
40,44
41,45
42,47
43,50
44,52
45,55
46,59
47,62
48,65
49,68
50,70
51,72
52,74
53,74
54,74
55,74
56,72
57,70
58,68
59,65
60,61
61,57
62,53
63,48
64,43
65,37
66,32
67,26
68,20
69,14
70,7
71,1
72,-5
73,-13
74,-20
75,-28
76,-37
77,-45
78,-54
79,-62
80,-71
81,-80
82,-88
83,-96
84,-104
85,-111
86,-118
87,-123
88,-127
89,-130
90,-131
91,-131
92,-130
93,-127
94,-124
95,-119
96,-113
97,-107
98,-100
99,-93
100,-86
101,-79
102,-74
103,-69
104,-66
105,-65
106,-65
107,-65
108,-64
109,-64
110,-62
111,-59
112,-55
113,-51
114,-49
115,-52
116,-61
117,-76
118,-100
119,-130
120,-166
121,-205
122,-240
123,-267
124,-281
125,-276
126,-248
127,-197
128,-120
129,-22
130,90
131,211
132,331
133,439
134,527
135,586
136,610
137,596
138,544
139,459
140,346
141,215
142,75
143,-63
144,-190
145,-298
146,-379
147,-432
148,-456
149,-453
150,-428
151,-386
152,-332
153,-274
154,-218
155,-169
156,-130
157,-101
158,-83
159,-76
160,-77
161,-85
162,-95
163,-106
164,-115
165,-122
166,-127
167,-129
168,-128
169,-125
170,-121
171,-119
172,-117
173,-117
174,-119
175,-122
176,-126
177,-132
178,-138
179,-145
180,-150
181,-154
182,-157
183,-158
184,-157
185,-154
186,-149
187,-142
188,-133
189,-123
190,-112
191,-100
192,-87
193,-73
194,-58
195,-43
196,-28
197,-13
198,0
199,13
200,25
201,36
202,45
203,52
204,57
205,60
206,61
207,61
208,58
209,53
210,47
211,39
212,29
213,18
214,6
215,-7
216,-20
217,-34
218,-47
219,-61
220,-73
221,-85
222,-96
223,-106
224,-114
225,-121
226,-126
227,-130
228,-132
229,-133
230,-132
231,-129
232,-125
233,-120
234,-114
235,-107
236,-100
237,-92
238,-84
239,-76
240,-68
241,-60
242,-53
243,-46
244,-39
245,-34
246,-29
247,-26
248,-24
249,-23
250,-24
251,-26
252,-29
253,-34
254,-41
255,-49
256,-59
257,-71
258,-84
259,-99
260,-116
261,-134
262,-153
263,-173
264,-194
265,-215
266,-236
267,-257
268,-278
269,-298
270,-316
271,-333
272,-348
273,-361
274,-371
275,-378
276,-382
277,-382
278,-380
279,-374
280,-366
281,-355
282,-341
283,-325
284,-306
285,-287
286,-266
287,-245
288,-224
289,-203
290,-184
291,-166
292,-150
293,-137
294,-126
295,-118
296,-114
297,-113
298,-115
299,-121
300,-130
301,-141
302,-156
303,-172
304,-191
305,-212
306,-233
307,-255
308,-276
309,-298
310,-318
311,-337
312,-354
313,-369
314,-381
315,-391
316,-398
317,-402
318,-403
319,-402
320,-397
321,-390
322,-380
323,-368
324,-354
325,-339
326,-323
327,-306
328,-290
329,-273
330,-257
331,-242
332,-228
333,-216
334,-205
335,-195
336,-188
337,-182
338,-178
339,-175
340,-175
341,-176
342,-178
343,-181
344,-185
345,-189
346,-193
347,-197
348,-200
349,-203
350,-206
351,-207
352,-208
353,-208
354,-206
355,-203
356,-199
357,-194
358,-187
359,-179
360,-170
361,-161
362,-151
363,-142
364,-132
365,-122
366,-112
367,-102
368,-93
369,-84
370,-76
371,-69
372,-62
373,-57
374,-53
375,-50
376,-49
377,-48
378,-47
379,-48
380,-48
381,-49
382,-50
383,-51
384,-51
385,-52
386,-52
387,-51
388,-49
389,-47
390,-42
391,-36
392,-29
393,-21
394,-12
395,-2
396,8
397,19
398,31
399,42
400,54
401,65
402,76
403,86
404,95
405,102
406,108
407,113
408,116
409,117
410,117
411,116
412,114
413,111
414,107
415,103
416,99
417,94
418,90
419,86
420,83
421,80
422,78
423,77
424,76
425,76
426,77
427,78
428,80
429,81
430,82
431,83
432,83
433,82
434,80
435,77
436,73
437,69
438,66
439,64
440,64
441,67
442,71
443,77
444,83
445,87
446,87
447,82
448,69
449,55
450,38
451,20
452,-1
453,-31
454,-62
455,-79
456,-66
457,-8
458,90
459,215
460,350
461,481
462,606
463,725
464,825
465,892
466,909
467,868
468,783
469,667
470,539
471,412
472,286
473,162
474,44
475,-61
476,-145
477,-201
478,-231
479,-237
480,-225
481,-198
482,-161
483,-118
484,-77
485,-41
486,-11
487,10
488,26
489,36
490,40
491,42
492,42
493,44
494,48
495,54
496,61
497,69
498,77
499,85
500,92
501,96
502,99
503,98
504,96
505,92
506,86
507,80
508,72
509,65
510,58
511,52
512,47
513,42
514,38
515,36
516,35
517,35
518,36
519,38
520,41
521,45
522,50
523,56
524,63
525,69
526,76
527,84
528,91
529,98
530,105
531,112
532,119
533,125
534,132
535,138
536,144
537,149
538,154
539,159
540,164
541,168
542,173
543,177
544,182
545,186
546,190
547,195
548,200
549,205
550,210
551,216
552,221
553,228
554,234
555,241
556,248
557,255
558,263
559,270
560,277
561,284
562,291
563,297
564,301
565,305
566,308
567,310
568,310
569,308
570,305
571,301
572,294
573,286
574,277
575,265
576,253
577,239
578,224
579,209
580,193
581,176
582,160
583,144
584,128
585,112
586,98
587,84
588,72
589,61
590,51
591,42
592,35
593,29
594,24
595,21
596,18
597,15
598,14
599,13
600,12
601,12
602,11
603,10
604,9
605,8
606,7
607,4
608,2
609,0
610,-3
611,-7
612,-11
613,-15
614,-20
615,-24
616,-28
617,-33
618,-37
619,-41
620,-44
621,-48
622,-51
623,-53
624,-55
625,-57
626,-58
627,-60
628,-60
629,-61
630,-61
631,-61
632,-61
633,-61
634,-60
635,-60
636,-59
637,-58
638,-58
639,-57
640,-56
641,-55
642,-54
643,-53
644,-51
645,-50
646,-49
647,-47
648,-46
649,-44
650,-42
651,-41
652,-39
653,-37
654,-35
655,-33
656,-31
657,-29
658,-27
659,-25
660,-22
661,-20
662,-18
663,-15
664,-13
665,-10
666,-8
667,-5
668,-2
669,0
670,2
671,5
672,8
673,11
674,13
675,16
676,18
677,20
678,23
679,25
680,27
681,28
682,30
683,31
684,33
685,34
686,35
687,37
688,39
689,40
690,43
691,45
692,48
693,51
694,55
695,60
696,64
697,70
698,75
699,81
700,86
701,92
702,97
703,102
704,106
705,109
706,112
707,113
708,113
709,112
710,109
711,105
712,99
713,91
714,82
715,72
716,61
717,49
718,37
719,24
720,11
721,-1
722,-14
723,-26
724,-37
725,-47
726,-56
727,-64
728,-71
729,-76
730,-79
731,-82
732,-82
733,-82
734,-81
735,-79
736,-76
737,-72
738,-68
739,-63
740,-58
741,-53
742,-48
743,-42
744,-37
745,-32
746,-27
747,-22
748,-18
749,-14
750,-10
751,-6
752,-3
753,-2
754,-2
755,-5
756,-9
757,-15
758,-22
759,-31
760,-40
761,-48
762,-53
763,-55
764,-54
765,-51
766,-46
767,-39
768,-34
769,-31
770,-36
771,-50
772,-74
773,-108
774,-152
775,-204
776,-261
777,-318
778,-369
779,-407
780,-427
781,-424
782,-396
783,-341
784,-259
785,-153
786,-31
787,98
788,227
789,346
790,446
791,519
792,558
793,562
794,530
795,464
796,371
797,257
798,133
799,6
800,-114
801,-220
802,-307
803,-371
804,-410
805,-425
806,-421
807,-402
808,-372
809,-337
810,-300
811,-268
812,-242
813,-223
814,-211
815,-204
816,-201
817,-201
818,-202
819,-201
820,-198
821,-192
822,-185
823,-176
824,-166
825,-157
826,-147
827,-139
828,-133
829,-128
830,-125
831,-124
832,-123
833,-122
834,-122
835,-122
836,-122
837,-121
838,-120
839,-119
840,-116
841,-114
842,-110
843,-106
844,-102
845,-97
846,-91
847,-85
848,-78
849,-71
850,-64
851,-57
852,-49
853,-41
854,-34
855,-27
856,-20
857,-13
858,-6
859,0
860,6
861,12
862,18
863,24
864,30
865,35
866,41
867,47
868,53
869,60
870,66
871,73
872,81
873,88
874,97
875,105
876,114
877,124
878,134
879,143
880,154
881,164
882,174
883,184
884,194
885,203
886,212
887,220
888,227
889,233
890,238
891,242
892,245
893,247
894,247
895,246
896,244
897,241
898,237
899,232
900,226
901,219
902,212
903,205
904,197
905,189
906,180
907,172
908,164
909,156
910,148
911,140
912,132
913,125
914,118
915,111
916,104
917,97
918,90
919,83
920,77
921,70
922,63
923,56
924,49
925,42
926,35
927,28
928,21
929,15
930,8
931,1
932,-4
933,-11
934,-17
935,-22
936,-28
937,-33
938,-38
939,-43
940,-47
941,-52
942,-56
943,-60
944,-63
945,-66
946,-70
947,-73
948,-75
949,-78
950,-81
951,-83
952,-85
953,-88
954,-90
955,-92
956,-94
957,-95
958,-97
959,-99
960,-100
961,-102
962,-103
963,-105
964,-106
965,-107
966,-108
967,-109
968,-110
969,-111
970,-112
971,-112
972,-113
973,-113
974,-113
975,-113
976,-113
977,-112
978,-112
979,-111
980,-110
981,-109
982,-107
983,-106
984,-104
985,-101
986,-99
987,-96
988,-93
989,-90
990,-87
991,-83
992,-79
993,-75
994,-71
995,-66
996,-62
997,-57
998,-52
999,-47
1000,-41
1001,-36
1002,-31
1003,-25
1004,-20
1005,-15
1006,-9
1007,-4
1008,0
1009,5
1010,10
1011,15
1012,20
1013,24
1014,28
1015,32
1016,36
1017,40
1018,43
1019,45
1020,48
1021,50
1022,52
1023,53
1024,54
1025,55
1026,55
1027,55
1028,55
1029,54
1030,53
1031,52
1032,50
1033,48
1034,46
1035,43
1036,40
1037,37
1038,34
1039,30
1040,26
1041,23
1042,19
1043,14
1044,10
1045,6
1046,1
1047,-3
1048,-7
1049,-12
1050,-17
1051,-22
1052,-27
1053,-32
1054,-36
1055,-41
1056,-46
1057,-50
1058,-55
1059,-59
1060,-63
1061,-66
1062,-69
1063,-71
1064,-72
1065,-73
1066,-73
1067,-73
1068,-72
1069,-70
1070,-68
1071,-65
1072,-61
1073,-58
1074,-54
1075,-50
1076,-47
1077,-44
1078,-42
1079,-41
1080,-41
1081,-42
1082,-45
1083,-50
1084,-56
1085,-64
1086,-72
1087,-80
1088,-87
1089,-92
1090,-95
1091,-96
1092,-94
1093,-92
1094,-91
1095,-94
1096,-102
1097,-118
1098,-142
1099,-172
1100,-203
1101,-235
1102,-261
1103,-280
1104,-291
1105,-283
1106,-248
1107,-179
1108,-75
1109,50
1110,185
1111,320
1112,450
1113,574
1114,683
1115,753
1116,765
1117,706
1118,585
1119,429
1120,265
1121,111
1122,-23
1123,-142
1124,-246
1125,-331
1126,-392
1127,-425
1128,-430
1129,-414
1130,-380
1131,-337
1132,-291
1133,-247
1134,-210
1135,-181
1136,-160
1137,-148
1138,-141
1139,-138
1140,-137
1141,-135
1142,-131
1143,-125
1144,-116
1145,-105
1146,-94
1147,-84
1148,-75
1149,-68
1150,-64
1151,-63
1152,-65
1153,-69
1154,-75
1155,-82
1156,-91
1157,-100
1158,-110
1159,-119
1160,-127
1161,-135
1162,-142
1163,-149
1164,-154
1165,-157
1166,-160
1167,-161
1168,-160
1169,-159
1170,-156
1171,-152
1172,-147
1173,-141
1174,-134
1175,-127
1176,-120
1177,-112
1178,-104
1179,-96
1180,-87
1181,-79
1182,-70
1183,-62
1184,-53
1185,-45
1186,-36
1187,-28
1188,-19
1189,-11
1190,-2
1191,6
1192,15
1193,24
1194,33
1195,42
1196,50
1197,59
1198,68
1199,77
1200,85
1201,93
1202,101
1203,109
1204,117
1205,124
1206,131
1207,138
1208,144
1209,151
1210,157
1211,162
1212,168
1213,173
1214,178
1215,183
1216,187
1217,191
1218,194
1219,197
1220,199
1221,201
1222,202
1223,202
1224,202
1225,200
1226,198
1227,195
1228,190
1229,185
1230,178
1231,171
1232,162
1233,153
1234,143
1235,133
1236,122
1237,111
1238,100
1239,88
1240,77
1241,66
1242,55
1243,44
1244,35
1245,26
1246,17
1247,10
1248,3
1249,-1
1250,-6
1251,-11
1252,-14
1253,-17
1254,-20
1255,-22
1256,-24
1257,-25
1258,-26
1259,-28
1260,-29
1261,-30
1262,-31
1263,-32
1264,-34
1265,-36
1266,-37
1267,-39
1268,-41
1269,-43
1270,-45
1271,-47
1272,-48
1273,-50
1274,-51
1275,-52
1276,-54
1277,-54
1278,-55
1279,-56
1280,-56
1281,-56
1282,-56
1283,-55
1284,-55
1285,-54
1286,-54
1287,-53
1288,-52
1289,-52
1290,-51
1291,-50
1292,-49
1293,-48
1294,-47
1295,-46
1296,-45
1297,-44
1298,-42
1299,-41
1300,-39
1301,-38
1302,-36
1303,-34
1304,-32
1305,-30
1306,-27
1307,-25
1308,-22
1309,-19
1310,-16
1311,-13
1312,-10
1313,-6
1314,-3
1315,0
1316,4
1317,8
1318,12
1319,16
1320,20
1321,24
1322,28
1323,33
1324,37
1325,41
1326,45
1327,50
1328,54
1329,58
1330,62
1331,65
1332,69
1333,73
1334,76
1335,79
1336,82
1337,85
1338,87
1339,89
1340,91
1341,93
1342,94
1343,95
1344,96
1345,96
1346,97
1347,96
1348,96
1349,95
1350,94
1351,93
1352,91
1353,89
1354,87
1355,84
1356,82
1357,79
1358,75
1359,72
1360,68
1361,65
1362,61
1363,57
1364,53
1365,49
1366,45
1367,41
1368,37
1369,32
1370,28
1371,24
1372,20
1373,15
1374,11
1375,7
1376,3
1377,0
1378,-4
1379,-7
1380,-11
1381,-14
1382,-16
1383,-19
1384,-21
1385,-22
1386,-23
1387,-23
1388,-23
1389,-23
1390,-22
1391,-21
1392,-19
1393,-18
1394,-16
1395,-15
1396,-14
1397,-14
1398,-14
1399,-16
1400,-19
1401,-22
1402,-26
1403,-30
1404,-33
1405,-34
1406,-34
1407,-31
1408,-27
1409,-21
1410,-16
1411,-15
1412,-18
1413,-27
1414,-45
1415,-69
1416,-100
1417,-134
1418,-165
1419,-188
1420,-198
1421,-188
1422,-156
1423,-98
1424,-16
1425,87
1426,205
1427,329
1428,451
1429,558
1430,642
1431,694
1432,712
1433,695
1434,642
1435,557
1436,444
1437,305
1438,158
1439,17
1440,-104
1441,-191
1442,-246
1443,-274
1444,-280
1445,-274
1446,-258
1447,-231
1448,-198
1449,-160
1450,-124
1451,-95
1452,-74
1453,-60
1454,-51
1455,-46
1456,-44
1457,-42
1458,-39
1459,-34
1460,-26
1461,-17
1462,-7
1463,2
1464,12
1465,21
1466,28
1467,33
1468,35
1469,35
1470,33
1471,30
1472,25
1473,20
1474,15
1475,10
1476,6
1477,1
1478,-1
1479,-4
1480,-7
1481,-8
1482,-9
1483,-9
1484,-8
1485,-6
1486,-3
1487,0
1488,4
1489,9
1490,14
1491,19
1492,25
1493,31
1494,36
1495,42
1496,48
1497,54
1498,59
1499,65
1500,71
1501,76
1502,82
1503,88
1504,93
1505,99
1506,104
1507,109
1508,115
1509,120
1510,126
1511,131
1512,136
1513,141
1514,146
1515,151
1516,156
1517,161
1518,166
1519,171
1520,176
1521,181
1522,187
1523,192
1524,198
1525,205
1526,211
1527,218
1528,225
1529,232
1530,239
1531,247
1532,254
1533,261
1534,268
1535,274
1536,280
1537,285
1538,288
1539,290
1540,291
1541,291
1542,289
1543,285
1544,279
1545,272
1546,263
1547,253
1548,241
1549,227
1550,212
1551,196
1552,180
1553,163
1554,146
1555,128
1556,111
1557,95
1558,79
1559,63
1560,49
1561,36
1562,24
1563,14
1564,5
1565,-1
1566,-7
1567,-12
1568,-16
1569,-19
1570,-21
1571,-22
1572,-23
1573,-23
1574,-23
1575,-23
1576,-23
1577,-23
1578,-23
1579,-24
1580,-25
1581,-27
1582,-28
1583,-30
1584,-33
1585,-36
1586,-38
1587,-42
1588,-45
1589,-48
1590,-51
1591,-54
1592,-57
1593,-59
1594,-61
1595,-63
1596,-65
1597,-66
1598,-67
1599,-67
1600,-68
1601,-68
1602,-68
1603,-68
1604,-67
1605,-66
1606,-66
1607,-65
1608,-64
1609,-63
1610,-62
1611,-61
1612,-60
1613,-59
1614,-58
1615,-57
1616,-55
1617,-54
1618,-53
1619,-51
1620,-49
1621,-48
1622,-46
1623,-44
1624,-42
1625,-40
1626,-38
1627,-35
1628,-33
1629,-30
1630,-28
1631,-25
1632,-23
1633,-20
1634,-18
1635,-15
1636,-12
1637,-10
1638,-7
1639,-5
1640,-2
1641,0
1642,2
1643,4
1644,6
1645,8
1646,10
1647,12
1648,14
1649,15
1650,16
1651,18
1652,18
1653,19
1654,20
1655,20
1656,20
1657,20
1658,20
1659,20
1660,19
1661,18
1662,17
1663,15
1664,14
1665,12
1666,10
1667,8
1668,5
1669,3
1670,0
1671,-2
1672,-5
1673,-8
1674,-12
1675,-15
1676,-18
1677,-22
1678,-26
1679,-29
1680,-33
1681,-37
1682,-40
1683,-44
1684,-48
1685,-52
1686,-56
1687,-60
1688,-64
1689,-68
1690,-72
1691,-75
1692,-79
1693,-82
1694,-85
1695,-88
1696,-90
1697,-92
1698,-94
1699,-95
1700,-96
1701,-96
1702,-96
1703,-95
1704,-94
1705,-93
1706,-92
1707,-91
1708,-91
1709,-91
1710,-92
1711,-93
1712,-96
1713,-100
1714,-106
1715,-111
1716,-116
1717,-120
1718,-123
1719,-124
1720,-123
1721,-120
1722,-116
1723,-114
1724,-115
1725,-121
1726,-132
1727,-152
1728,-178
1729,-209
1730,-241
1731,-269
1732,-289
1733,-295
1734,-281
1735,-244
1736,-181
1737,-95
1738,5
1739,117
1740,232
1741,349
1742,467
1743,575
1744,657
1745,698
1746,680
1747,602
1748,479
1749,323
1750,163
1751,16
1752,-114
1753,-217
1754,-297
1755,-357
1756,-394
1757,-414
1758,-416
1759,-398
1760,-364
1761,-316
1762,-262
1763,-210
1764,-163
1765,-124
1766,-94
1767,-74
1768,-63
1769,-61
1770,-67
1771,-77
1772,-90
1773,-103
1774,-113
1775,-122
1776,-127
1777,-128
1778,-125
1779,-119
1780,-111
1781,-104
1782,-97
1783,-91
1784,-87
1785,-84
1786,-83
1787,-83
1788,-85
1789,-86
1790,-86
1791,-87
1792,-86
1793,-85
1794,-84
1795,-82
1796,-79
1797,-77
1798,-74
1799,-70
1800,-67
1801,-63
1802,-59
1803,-55
1804,-51
1805,-47
1806,-43
1807,-39
1808,-34
1809,-30
1810,-25
1811,-21
1812,-16
1813,-11
1814,-6
1815,-1
1816,3
1817,9
1818,14
1819,20
1820,25
1821,31
1822,37
1823,42
1824,48
1825,54
1826,60
1827,66
1828,72
1829,78
1830,84
1831,90
1832,95
1833,101
1834,107
1835,113
1836,119
1837,125
1838,131
1839,138
1840,144
1841,150
1842,155
1843,161
1844,166
1845,170
1846,174
1847,178
1848,181
1849,183
1850,184
1851,184
1852,183
1853,181
1854,178
1855,174
1856,169
1857,162
1858,155
1859,147
1860,139
1861,129
1862,120
1863,110
1864,99
1865,88
1866,78
1867,67
1868,56
1869,46
1870,35
1871,25
1872,16
1873,7
1874,-1
1875,-9
1876,-17
1877,-25
1878,-32
1879,-39
1880,-46
1881,-52
1882,-58
1883,-63
1884,-68
1885,-73
1886,-77
1887,-82
1888,-86
1889,-89
1890,-93
1891,-96
1892,-99
1893,-101
1894,-103
1895,-105
1896,-107
1897,-108
1898,-110
1899,-111
1900,-112
1901,-113
1902,-113
1903,-114
1904,-114
1905,-114
1906,-114
1907,-114
1908,-113
1909,-113
1910,-112
1911,-112
1912,-111
1913,-111
1914,-110
1915,-109
1916,-109
1917,-108
1918,-107
1919,-106
1920,-105
1921,-104
1922,-103
1923,-103
1924,-102
1925,-101
1926,-100
1927,-99
1928,-98
1929,-97
1930,-96
1931,-95
1932,-94
1933,-93
1934,-91
1935,-90
1936,-88
1937,-87
1938,-85
1939,-83
1940,-81
1941,-79
1942,-77
1943,-75
1944,-72
1945,-70
1946,-67
1947,-65
1948,-62
1949,-60
1950,-57
1951,-54
1952,-51
1953,-48
1954,-46
1955,-43
1956,-40
1957,-38
1958,-35
1959,-33
1960,-30
1961,-28
1962,-26
1963,-24
1964,-22
1965,-21
1966,-19
1967,-18
1968,-17
1969,-16
1970,-16
1971,-16
1972,-16
1973,-16
1974,-17
1975,-18
1976,-19
1977,-20
1978,-22
1979,-24
1980,-26
1981,-28
1982,-31
1983,-34
1984,-37
1985,-40
1986,-44
1987,-47
1988,-51
1989,-55
1990,-58
1991,-62
1992,-66
1993,-70
1994,-74
1995,-78
1996,-82
1997,-86
1998,-90
1999,-94
2000,-98
2001,-102
2002,-106
2003,-110
2004,-114
2005,-117
2006,-121
2007,-124
2008,-127
2009,-129
2010,-132
2011,-133
2012,-134
2013,-135
2014,-135
2015,-135
2016,-134
2017,-133
2018,-131
2019,-129
2020,-127
2021,-125
2022,-123
2023,-121
2024,-121
2025,-121
2026,-123
2027,-126
2028,-129
2029,-131
2030,-133
2031,-134
2032,-133
2033,-130
2034,-125
2035,-120
2036,-116
2037,-116
2038,-121
2039,-134
2040,-154
2041,-182
2042,-216
2043,-253
2044,-288
2045,-315
2046,-329
2047,-324
2048,-296
2049,-242
2050,-164
2051,-62
2052,55
2053,182
2054,310
2055,428
2056,527
2057,599
2058,638
2059,639
2060,603
2061,531
2062,429
2063,303
2064,164
2065,20
2066,-119
2067,-245
2068,-350
2069,-429
2070,-480
2071,-501
2072,-496
2073,-468
2074,-422
2075,-363
2076,-298
2077,-233
2078,-173
2079,-123
2080,-83
2081,-55
2082,-40
2083,-36
2084,-41
2085,-51
2086,-63
2087,-75
2088,-85
2089,-91
2090,-93
2091,-91
2092,-85
2093,-77
2094,-69
2095,-62
2096,-56
2097,-53
2098,-52
2099,-53
2100,-57
2101,-61
2102,-66
2103,-71
2104,-76
2105,-79
2106,-82
2107,-84
2108,-84
2109,-84
2110,-83
2111,-80
2112,-77
2113,-74
2114,-69
2115,-64
2116,-59
2117,-54
2118,-48
2119,-42
2120,-36
2121,-30
2122,-23
2123,-17
2124,-11
2125,-4
2126,1
2127,7
2128,13
2129,19
2130,25
2131,31
2132,37
2133,43
2134,49
2135,55
2136,61
2137,67
2138,73
2139,79
2140,86
2141,92
2142,99
2143,106
2144,113
2145,121
2146,129
2147,138
2148,146
2149,155
2150,164
2151,174
2152,183
2153,192
2154,201
2155,210
2156,218
2157,226
2158,233
2159,240
2160,245
2161,249
2162,252
2163,253
2164,254
2165,253
2166,251
2167,247
2168,242
2169,236
2170,229
2171,220
2172,211
2173,201
2174,190
2175,179
2176,167
2177,155
2178,142
2179,130
2180,117
2181,105
2182,93
2183,82
2184,71
2185,60
2186,50
2187,41
2188,32
2189,24
2190,17
2191,10
2192,4
2193,0
2194,-4
2195,-8
2196,-11
2197,-14
2198,-17
2199,-19
2200,-21
2201,-23
2202,-24
2203,-26
2204,-27
2205,-29
2206,-30
2207,-32
2208,-34
2209,-35
2210,-37
2211,-39
2212,-41
2213,-44
2214,-46
2215,-47
2216,-49
2217,-51
2218,-52
2219,-54
2220,-55
2221,-56
2222,-56
2223,-57
2224,-57
2225,-57
2226,-57
2227,-57
2228,-57
2229,-56
2230,-56
2231,-55
2232,-55
2233,-54
2234,-53
2235,-52
2236,-52
2237,-51
2238,-50
2239,-49
2240,-48
2241,-47
2242,-46
2243,-45
2244,-44
2245,-42
2246,-41
2247,-39
2248,-37
2249,-35
2250,-33
2251,-31
2252,-29
2253,-26
2254,-24
2255,-21
2256,-18
2257,-15
2258,-12
2259,-9
2260,-5
2261,-2
2262,1
2263,4
2264,8
2265,11
2266,15
2267,18
2268,22
2269,26
2270,29
2271,32
2272,36
2273,39
2274,42
2275,45
2276,48
2277,50
2278,53
2279,55
2280,57
2281,59
2282,61
2283,62
2284,63
2285,64
2286,64
2287,65
2288,65
2289,65
2290,64
2291,63
2292,62
2293,61
2294,60
2295,58
2296,56
2297,54
2298,51
2299,49
2300,46
2301,43
2302,40
2303,37
2304,34
2305,31
2306,27
2307,24
2308,20
2309,17
2310,13
2311,9
2312,5
2313,2
2314,-1
2315,-4
2316,-8
2317,-12
2318,-15
2319,-19
2320,-22
2321,-25
2322,-27
2323,-30
2324,-32
2325,-33
2326,-34
2327,-34
2328,-33
2329,-32
2330,-31
2331,-29
2332,-27
2333,-23
2334,-20
2335,-16
2336,-13
2337,-10
2338,-8
2339,-7
2340,-6
2341,-7
2342,-10
2343,-13
2344,-16
2345,-18
2346,-18
2347,-18
2348,-15
2349,-11
2350,-6
2351,-1
2352,1
2353,-1
2354,-11
2355,-26
2356,-50
2357,-81
2358,-118
2359,-158
2360,-195
2361,-223
2362,-238
2363,-236
2364,-212
2365,-164
2366,-91
2367,5
2368,119
2369,243
2370,371
2371,494
2372,603
2373,690
2374,747
2375,770
2376,756
2377,707
2378,625
2379,517
2380,391
2381,254
2382,118
2383,-9
2384,-120
2385,-208
2386,-268
2387,-301
2388,-308
2389,-292
2390,-258
2391,-211
2392,-158
2393,-105
2394,-58
2395,-20
2396,7
2397,26
2398,34
2399,33
2400,26
2401,16
2402,7
2403,0
2404,-3
2405,-3
2406,0
2407,8
2408,20
2409,34
2410,48
2411,61
2412,72
2413,82
2414,89
2415,94
2416,97
2417,97
2418,97
2419,96
2420,95
2421,94
2422,92
2423,91
2424,90
2425,89
2426,88
2427,87
2428,87
2429,86
2430,87
2431,88
2432,90
2433,92
2434,95
2435,99
2436,103
2437,108
2438,114
2439,120
2440,126
2441,133
2442,141
2443,149
2444,157
2445,165
2446,174
2447,183
2448,192
2449,200
2450,209
2451,217
2452,226
2453,234
2454,242
2455,250
2456,258
2457,265
2458,272
2459,279
2460,285
2461,291
2462,297
2463,302
2464,308
2465,313
2466,318
2467,323
2468,328
2469,333
2470,337
2471,342
2472,347
2473,352
2474,356
2475,360
2476,365
2477,368
2478,372
2479,374
2480,377
2481,378
2482,379
2483,380
2484,379
2485,377
2486,374
2487,371
2488,366
2489,360
2490,353
2491,346
2492,337
2493,328
2494,319
2495,309
2496,298
2497,288
2498,277
2499,266
2500,255
2501,245
2502,235
2503,225
2504,215
2505,207
2506,198
2507,190
2508,183
2509,176
2510,170
2511,164
2512,158
2513,153
2514,149
2515,145
2516,141
2517,137
2518,134
2519,131
2520,129
2521,127
2522,124
2523,123
2524,121
2525,120
2526,120
2527,119
2528,119
2529,119
2530,120
2531,120
2532,122
2533,123
2534,125
2535,127
2536,129
2537,132
2538,135
2539,138
2540,141
2541,144
2542,147
2543,150
2544,153
2545,155
2546,157
2547,160
2548,161
2549,163
2550,164
2551,164
2552,164
2553,164
2554,164
2555,164
2556,164
2557,164
2558,164
2559,164
2560,165
2561,166
2562,168
2563,170
2564,172
2565,175
2566,179
2567,182
2568,185
2569,187
2570,188
2571,187
2572,185
2573,181
2574,176
2575,171
2576,165
2577,161
2578,158
2579,157
2580,154
2581,150
2582,143
2583,132
2584,113
2585,86
2586,49
2587,1
2588,-52
2589,-112
2590,-175
2591,-238
2592,-297
2593,-348
2594,-390
2595,-420
2596,-440
2597,-449
2598,-451
2599,-448
2600,-441
2601,-432
2602,-424
2603,-418
2604,-415
2605,-413
2606,-413
2607,-412
2608,-411
2609,-409
2610,-405
2611,-400
2612,-394
2613,-387
2614,-380
2615,-374
2616,-369
2617,-365
2618,-362
2619,-361
2620,-362
2621,-364
2622,-367
2623,-371
2624,-375
2625,-381
2626,-386
2627,-392
2628,-397
2629,-403
2630,-408
2631,-413
2632,-417
2633,-420
2634,-423
2635,-425
2636,-426
2637,-427
2638,-427
2639,-427
2640,-426
2641,-424
2642,-423
2643,-421
2644,-419
2645,-417
2646,-415
2647,-413
2648,-411
2649,-409
2650,-407
2651,-405
2652,-403
2653,-401
2654,-399
2655,-397
2656,-394
2657,-391
2658,-388
2659,-385
2660,-382
2661,-378
2662,-375
2663,-371
2664,-368
2665,-365
2666,-363
2667,-362
2668,-362
2669,-363
2670,-363
2671,-364
2672,-363
2673,-361
2674,-356
2675,-350
2676,-341
2677,-332
2678,-325
2679,-322
2680,-325
2681,-335
2682,-355
2683,-382
2684,-415
2685,-452
2686,-485
2687,-509
2688,-517
2689,-506
2690,-469
2691,-405
2692,-317
2693,-207
2694,-82
2695,49
2696,176
2697,289
2698,378
2699,436
2700,465
2701,460
2702,420
2703,344
2704,226
2705,76
2706,-81
2707,-228
2708,-340
2709,-407
2710,-442
2711,-456
2712,-462
2713,-466
2714,-462
2715,-446
2716,-417
2717,-379
2718,-342
2719,-311
2720,-287
2721,-270
2722,-257
2723,-248
2724,-242
2725,-238
2726,-232
2727,-225
2728,-216
2729,-205
2730,-193
2731,-180
2732,-169
2733,-158
2734,-149
2735,-142
2736,-138
2737,-136
2738,-136
2739,-137
2740,-139
2741,-142
2742,-145
2743,-148
2744,-150
2745,-152
2746,-154
2747,-155
2748,-156
2749,-156
2750,-154
2751,-152
2752,-149
2753,-145
2754,-141
2755,-135
2756,-129
2757,-123
2758,-116
2759,-109
2760,-102
2761,-94
2762,-87
2763,-79
2764,-72
2765,-65
2766,-57
2767,-50
2768,-42
2769,-35
2770,-27
2771,-20
2772,-12
2773,-5
2774,2
2775,10
2776,18
2777,26
2778,35
2779,43
2780,52
2781,61
2782,69
2783,78
2784,87
2785,96
2786,104
2787,113
2788,121
2789,130
2790,138
2791,146
2792,153
2793,161
2794,168
2795,174
2796,181
2797,187
2798,192
2799,197
2800,202
2801,206
2802,209
2803,212
2804,215
2805,217
2806,219
2807,220
2808,221
2809,221
2810,221
2811,221
2812,220
2813,218
2814,216
2815,213
2816,210
2817,207
2818,203
2819,198
2820,193
2821,187
2822,180
2823,173
2824,165
2825,156
2826,147
2827,138
2828,128
2829,118
2830,109
2831,99
2832,89
2833,80
2834,70
2835,61
2836,53
2837,46
2838,39
2839,33
2840,28
2841,23
2842,20
2843,17
2844,15
2845,14
2846,13
2847,12
2848,12
2849,12
2850,13
2851,13
2852,14
2853,14
2854,15
2855,15
2856,16
2857,16
2858,16
2859,15
2860,15
2861,15
2862,15
2863,15
2864,15
2865,15
2866,16
2867,16
2868,16
2869,17
2870,18
2871,19
2872,20
2873,21
2874,22
2875,23
2876,25
2877,26
2878,27
2879,28
2880,29
2881,30
2882,31
2883,32
2884,32
2885,33
2886,33
2887,34
2888,34
2889,34
2890,35
2891,35
2892,35
2893,35
2894,35
2895,35
2896,35
2897,35
2898,35
2899,36
2900,36
2901,36
2902,37
2903,37
2904,37
2905,38
2906,39
2907,39
2908,40
2909,41
2910,42
2911,43
2912,45
2913,46
2914,48
2915,49
2916,51
2917,53
2918,55
2919,57
2920,59
2921,61
2922,63
2923,65
2924,68
2925,70
2926,72
2927,75
2928,77
2929,80
2930,82
2931,84
2932,87
2933,89
2934,91
2935,93
2936,95
2937,97
2938,99
2939,101
2940,103
2941,104
2942,105
2943,107
2944,108
2945,108
2946,109
2947,109
2948,110
2949,110
2950,109
2951,109
2952,108
2953,108
2954,107
2955,105
2956,104
2957,102
2958,100
2959,98
2960,96
2961,94
2962,91
2963,89
2964,86
2965,83
2966,80
2967,77
2968,73
2969,70
2970,67
2971,63
2972,60
2973,56
2974,52
2975,48
2976,45
2977,41
2978,37
2979,33
2980,29
2981,25
2982,22
2983,18
2984,15
2985,12
2986,10
2987,8
2988,6
2989,5
2990,5
2991,5
2992,5
2993,6
2994,8
2995,10
2996,12
2997,14
2998,17
2999,19
3000,21
3001,23
3002,23
3003,23
3004,21
3005,17
3006,13
3007,7
3008,2
3009,-3
3010,-7
3011,-10
3012,-11
3013,-9
3014,-7
3015,-6
3016,-7
3017,-13
3018,-25
3019,-44
3020,-70
3021,-102
3022,-138
3023,-173
3024,-200
3025,-215
3026,-212
3027,-187
3028,-136
3029,-60
3030,40
3031,158
3032,287
3033,417
3034,539
3035,643
3036,720
3037,763
3038,769
3039,736
3040,667
3041,566
3042,442
3043,302
3044,158
3045,17
3046,-112
3047,-221
3048,-307
3049,-366
3050,-397
3051,-403
3052,-387
3053,-352
3054,-304
3055,-248
3056,-190
3057,-136
3058,-88
3059,-49
3060,-21
3061,-6
3062,-3
3063,-9
3064,-23
3065,-41
3066,-61
3067,-80
3068,-96
3069,-107
3070,-112
3071,-112
3072,-108
3073,-100
3074,-91
3075,-81
3076,-73
3077,-66
3078,-62
3079,-60
3080,-59
3081,-60
3082,-62
3083,-64
3084,-65
3085,-66
3086,-66
3087,-65
3088,-64
3089,-62
3090,-60
3091,-57
3092,-55
3093,-52
3094,-49
3095,-45
3096,-42
3097,-38
3098,-34
3099,-30
3100,-25
3101,-21
3102,-17
3103,-12
3104,-7
3105,-3
3106,1
3107,6
3108,11
3109,17
3110,22
3111,28
3112,33
3113,39
3114,45
3115,50
3116,56
3117,62
3118,69
3119,75
3120,81
3121,87
3122,93
3123,99
3124,105
3125,111
3126,117
3127,122
3128,128
3129,133
3130,138
3131,143
3132,147
3133,151
3134,155
3135,158
3136,161
3137,164
3138,166
3139,168
3140,169
3141,170
3142,170
3143,170
3144,169
3145,168
3146,167
3147,165
3148,162
3149,159
3150,156
3151,152
3152,147
3153,143
3154,138
3155,132
3156,127
3157,121
3158,114
3159,108
3160,101
3161,94
3162,87
3163,79
3164,72
3165,65
3166,57
3167,50
3168,42
3169,35
3170,28
3171,21
3172,14
3173,7
3174,0
3175,-5
3176,-11
3177,-17
3178,-23
3179,-28
3180,-33
3181,-38
3182,-42
3183,-46
3184,-50
3185,-53
3186,-56
3187,-59
3188,-61
3189,-63
3190,-65
3191,-66
3192,-68
3193,-68
3194,-69
3195,-69
3196,-69
3197,-69
3198,-69
3199,-68
3200,-68
3201,-67
3202,-66
3203,-64
3204,-63
3205,-62
3206,-60
3207,-59
3208,-57
3209,-55
3210,-54
3211,-52
3212,-50
3213,-48
3214,-47
3215,-45
3216,-44
3217,-42
3218,-40
3219,-39
3220,-38
3221,-36
3222,-35
3223,-34
3224,-33
3225,-32
3226,-31
3227,-30
3228,-30
3229,-29
3230,-28
3231,-28
3232,-27
3233,-27
3234,-27
3235,-27
3236,-26
3237,-26
3238,-26
3239,-26
3240,-26
3241,-26
3242,-26
3243,-26
3244,-26
3245,-26
3246,-27
3247,-27
3248,-27
3249,-26
3250,-26
3251,-26
3252,-26
3253,-26
3254,-26
3255,-25
3256,-25
3257,-24
3258,-24
3259,-23
3260,-22
3261,-21
3262,-20
3263,-19
3264,-18
3265,-17
3266,-16
3267,-15
3268,-14
3269,-12
3270,-11
3271,-9
3272,-8
3273,-6
3274,-5
3275,-3
3276,-2
3277,-1
3278,0
3279,1
3280,3
3281,4
3282,5
3283,6
3284,7
3285,8
3286,9
3287,10
3288,11
3289,11
3290,11
3291,11
3292,11
3293,11
3294,11
3295,10
3296,10
3297,9
3298,8
3299,6
3300,5
3301,3
3302,1
3303,0
3304,-2
3305,-4
3306,-7
3307,-10
3308,-12
3309,-15
3310,-18
3311,-22
3312,-25
3313,-28
3314,-32
3315,-35
3316,-39
3317,-43
3318,-47
3319,-51
3320,-55
3321,-59
3322,-63
3323,-67
3324,-71
3325,-75
3326,-79
3327,-83
3328,-86
3329,-89
3330,-91
3331,-93
3332,-94
3333,-95
3334,-95
3335,-94
3336,-93
3337,-91
3338,-88
3339,-86
3340,-83
3341,-79
3342,-76
3343,-73
3344,-70
3345,-67
3346,-66
3347,-66
3348,-68
3349,-71
3350,-75
3351,-80
3352,-86
3353,-90
3354,-94
3355,-97
3356,-97
3357,-96
3358,-94
3359,-93
3360,-94
3361,-100
3362,-112
3363,-129
3364,-154
3365,-183
3366,-216
3367,-247
3368,-270
3369,-282
3370,-278
3371,-253
3372,-205
3373,-133
3374,-39
3375,73
3376,197
3377,324
3378,448
3379,558
3380,646
3381,704
3382,727
3383,713
3384,663
3385,579
3386,466
3387,334
3388,192
3389,49
3390,-85
3391,-202
3392,-296
3393,-362
3394,-400
3395,-413
3396,-403
3397,-377
3398,-339
3399,-297
3400,-257
3401,-222
3402,-195
3403,-175
3404,-162
3405,-155
3406,-151
3407,-148
3408,-144
3409,-137
3410,-127
3411,-114
3412,-99
3413,-83
3414,-67
3415,-52
3416,-40
3417,-30
3418,-23
3419,-20
3420,-18
3421,-19
3422,-21
3423,-25
3424,-30
3425,-36
3426,-42
3427,-48
3428,-53
3429,-58
3430,-63
3431,-67
3432,-70
3433,-71
3434,-72
3435,-72
3436,-70
3437,-68
3438,-65
3439,-61
3440,-56
3441,-51
3442,-45
3443,-39
3444,-32
3445,-26
3446,-20
3447,-13
3448,-7
3449,-1
3450,4
3451,10
3452,16
3453,21
3454,27
3455,32
3456,37
3457,42
3458,47
3459,52
3460,57
3461,63
3462,68
3463,73
3464,79
3465,85
3466,90
3467,96
3468,102
3469,108
3470,115
3471,121
3472,128
3473,135
3474,142
3475,149
3476,156
3477,162
3478,169
3479,175
3480,181
3481,187
3482,192
3483,196
3484,200
3485,203
3486,206
3487,207
3488,208
3489,208
3490,206
3491,204
3492,201
3493,198
3494,193
3495,189
3496,183
3497,177
3498,171
3499,164
3500,157
3501,150
3502,142
3503,135
3504,127
3505,119
3506,112
3507,104
3508,97
3509,89
3510,82
3511,74
3512,67
3513,59
3514,52
3515,44
3516,37
3517,29
3518,22
3519,15
3520,8
3521,1
3522,-5
3523,-12
3524,-18
3525,-24
3526,-30
3527,-36
3528,-41
3529,-46
3530,-50
3531,-54
3532,-58
3533,-61
3534,-64
3535,-67
3536,-69
3537,-71
3538,-72
3539,-73
3540,-74
3541,-74
3542,-74
3543,-74
3544,-74
3545,-73
3546,-73
3547,-72
3548,-71
3549,-69
3550,-68
3551,-66
3552,-65
3553,-63
3554,-61
3555,-59
3556,-57
3557,-55
3558,-53
3559,-51
3560,-49
3561,-47
3562,-46
3563,-44
3564,-42
3565,-40
3566,-39
3567,-37
3568,-36
3569,-35
3570,-34
3571,-32
3572,-31
3573,-31
3574,-30
3575,-29
3576,-29
3577,-28
3578,-28
3579,-27
3580,-27
3581,-27
3582,-27
3583,-27
3584,-27
3585,-27
3586,-27
3587,-28
3588,-28
3589,-28
3590,-28
3591,-28
3592,-29
3593,-29
3594,-29
3595,-29
3596,-29
3597,-29
3598,-29
3599,-29
3600,-29
3601,-29
3602,-29
3603,-28
3604,-28
3605,-27
3606,-27
3607,-26
3608,-25
3609,-24
3610,-24
3611,-22
3612,-21
3613,-20
3614,-19
3615,-18
3616,-16
3617,-15
3618,-13
3619,-12
3620,-10
3621,-8
3622,-7
3623,-5
3624,-3
3625,-2
3626,0
3627,1
3628,2
3629,4
3630,5
3631,7
3632,8
3633,9
3634,10
3635,11
3636,12
3637,13
3638,14
3639,14
3640,15
3641,15
3642,15
3643,15
3644,14
3645,14
3646,13
3647,12
3648,11
3649,10
3650,8
3651,7
3652,5
3653,3
3654,0
3655,-1
3656,-3
3657,-6
3658,-9
3659,-11
3660,-14
3661,-17
3662,-20
3663,-23
3664,-27
3665,-30
3666,-33
3667,-37
3668,-40
3669,-43
3670,-47
3671,-50
3672,-54
3673,-57
3674,-60
3675,-63
3676,-66
3677,-68
3678,-70
3679,-72
3680,-73
3681,-74
3682,-74
3683,-74
3684,-73
3685,-72
3686,-71
3687,-69
3688,-67
3689,-65
3690,-64
3691,-63
3692,-62
3693,-63
3694,-64
3695,-66
3696,-70
3697,-74
3698,-77
3699,-80
3700,-81
3701,-80
3702,-77
3703,-72
3704,-65
3705,-59
3706,-56
3707,-59
3708,-68
3709,-86
3710,-111
3711,-143
3712,-179
3713,-213
3714,-238
3715,-249
3716,-241
3717,-208
3718,-149
3719,-64
3720,43
3721,167
3722,299
3723,430
3724,549
3725,646
3726,713
3727,747
3728,743
3729,702
3730,627
3731,524
3732,400
3733,266
3734,129
3735,-1
3736,-120
3737,-220
3738,-296
3739,-348
3740,-374
3741,-379
3742,-363
3743,-332
3744,-289
3745,-240
3746,-189
3747,-142
3748,-102
3749,-69
3750,-46
3751,-32
3752,-28
3753,-32
3754,-40
3755,-52
3756,-63
3757,-72
3758,-80
3759,-84
3760,-83
3761,-79
3762,-72
3763,-64
3764,-56
3765,-49
3766,-44
3767,-40
3768,-39
3769,-39
3770,-41
3771,-44
3772,-47
3773,-50
3774,-52
3775,-53
3776,-54
3777,-54
3778,-53
3779,-51
3780,-49
3781,-47
3782,-44
3783,-41
3784,-37
3785,-33
3786,-29
3787,-25
3788,-20
3789,-16
3790,-11
3791,-6
3792,-2
3793,2
3794,7
3795,12
3796,16
3797,21
3798,26
3799,31
3800,36
3801,41
3802,46
3803,51
3804,56
3805,60
3806,65
3807,70
3808,75
3809,80
3810,85
3811,90
3812,95
3813,101
3814,106
3815,111
3816,116
3817,122
3818,128
3819,134
3820,141
3821,147
3822,154
3823,160
3824,167
3825,174
3826,180
3827,186
3828,191
3829,196
3830,201
3831,204
3832,207
3833,209
3834,210
3835,209
3836,208
3837,206
3838,202
3839,198
3840,192
3841,186
3842,179
3843,172
3844,164
3845,156
3846,147
3847,139
3848,130
3849,121
3850,112
3851,104
3852,96
3853,88
3854,80
3855,73
3856,66
3857,60
3858,53
3859,46
3860,40
3861,34
3862,28
3863,22
3864,16
3865,11
3866,5
3867,0
3868,-5
3869,-10
3870,-15
3871,-20
3872,-24
3873,-29
3874,-33
3875,-36
3876,-40
3877,-43
3878,-45
3879,-48
3880,-50
3881,-51
3882,-53
3883,-54
3884,-54
3885,-55
3886,-55
3887,-55
3888,-55
3889,-54
3890,-53
3891,-53
3892,-52
3893,-51
3894,-49
3895,-48
3896,-47
3897,-46
3898,-44
3899,-43
3900,-41
3901,-40
3902,-39
3903,-37
3904,-36
3905,-35
3906,-34
3907,-33
3908,-32
3909,-31
3910,-30
3911,-29
3912,-29
3913,-28
3914,-28
3915,-27
3916,-27
3917,-27
3918,-27
3919,-27
3920,-27
3921,-27
3922,-27
3923,-27
3924,-27
3925,-27
3926,-28
3927,-28
3928,-28
3929,-28
3930,-28
3931,-28
3932,-29
3933,-28
3934,-28
3935,-28
3936,-28
3937,-28
3938,-27
3939,-26
3940,-26
3941,-25
3942,-24
3943,-23
3944,-21
3945,-20
3946,-18
3947,-17
3948,-15
3949,-13
3950,-10
3951,-8
3952,-6
3953,-3
3954,-1
3955,1
3956,4
3957,7
3958,10
3959,13
3960,16
3961,19
3962,22
3963,25
3964,28
3965,31
3966,34
3967,37
3968,40
3969,43
3970,45
3971,48
3972,50
3973,53
3974,55
3975,57
3976,58
3977,60
3978,61
3979,62
3980,63
3981,64
3982,64
3983,65
3984,64
3985,64
3986,63
3987,63
3988,61
3989,60
3990,58
3991,56
3992,54
3993,52
3994,49
3995,46
3996,43
3997,40
3998,36
3999,33
4000,29
4001,25
4002,21
4003,17
4004,12
4005,8
4006,4
4007,0
4008,-4
4009,-9
4010,-14
4011,-19
4012,-23
4013,-28
4014,-32
4015,-37
4016,-41
4017,-45
4018,-49
4019,-52
4020,-55
4021,-58
4022,-60
4023,-62
4024,-63
4025,-63
4026,-64
4027,-63
4028,-63
4029,-62
4030,-61
4031,-60
4032,-59
4033,-59
4034,-59
4035,-60
4036,-62
4037,-65
4038,-69
4039,-74
4040,-80
4041,-85
4042,-89
4043,-92
4044,-93
4045,-91
4046,-87
4047,-81
4048,-76
4049,-75
4050,-78
4051,-87
4052,-103
4053,-127
4054,-156
4055,-188
4056,-216
4057,-236
4058,-242
4059,-228
4060,-191
4061,-129
4062,-41
4063,68
4064,193
4065,326
4066,457
4067,577
4068,675
4069,743
4070,776
4071,771
4072,728
4073,648
4074,539
4075,407
4076,261
4077,112
4078,-33
4079,-165
4080,-277
4081,-365
4082,-425
4083,-457
4084,-464
4085,-448
4086,-412
4087,-363
4088,-306
4089,-248
4090,-194
4091,-147
4092,-110
4093,-84
4094,-70
4095,-67
4096,-73
4097,-84
4098,-98
4099,-111
4100,-121
4101,-128
4102,-129
4103,-125
4104,-117
4105,-106
4106,-94
4107,-83
4108,-74
4109,-67
4110,-64
4111,-63
4112,-66
4113,-70
4114,-76
4115,-83
4116,-89
4117,-94
4118,-99
4119,-104
4120,-107
4121,-109
4122,-111
4123,-111
4124,-111
4125,-110
4126,-108
4127,-105
4128,-102
4129,-98
4130,-93
4131,-88
4132,-83
4133,-78
4134,-72
4135,-67
4136,-61
4137,-56
4138,-50
4139,-44
4140,-39
4141,-33
4142,-27
4143,-22
4144,-16
4145,-11
4146,-5
4147,0
4148,5
4149,10
4150,16
4151,22
4152,28
4153,33
4154,39
4155,45
4156,51
4157,57
4158,63
4159,69
4160,75
4161,81
4162,87
4163,94
4164,101
4165,108
4166,116
4167,123
4168,130
4169,138
4170,145
4171,153
4172,160
4173,167
4174,173
4175,179
4176,184
4177,188
4178,192
4179,194
4180,195
4181,195
4182,194
4183,191
4184,188
4185,183
4186,177
4187,170
4188,162
4189,153
4190,143
4191,133
4192,122
4193,111
4194,99
4195,88
4196,77
4197,66
4198,55
4199,45
4200,36
4201,26
4202,18
4203,10
4204,2
4205,-4
4206,-10
4207,-15
4208,-20
4209,-24
4210,-28
4211,-32
4212,-35
4213,-38
4214,-41
4215,-44
4216,-46
4217,-49
4218,-51
4219,-53
4220,-55
4221,-58
4222,-60
4223,-62
4224,-64
4225,-67
4226,-69
4227,-71
4228,-72
4229,-74
4230,-75
4231,-77
4232,-78
4233,-78
4234,-79
4235,-79
4236,-79
4237,-79
4238,-79
4239,-79
4240,-78
4241,-77
4242,-76
4243,-75
4244,-74
4245,-73
4246,-72
4247,-71
4248,-70
4249,-69
4250,-68
4251,-67
4252,-67
4253,-66
4254,-65
4255,-64
4256,-64
4257,-63
4258,-63
4259,-62
4260,-62
4261,-62
4262,-62
4263,-62
4264,-61
4265,-61
4266,-61
4267,-61
4268,-61
4269,-61
4270,-62
4271,-62
4272,-62
4273,-62
4274,-62
4275,-62
4276,-62
4277,-63
4278,-63
4279,-63
4280,-63
4281,-63
4282,-63
4283,-63
4284,-63
4285,-63
4286,-62
4287,-62
4288,-62
4289,-61
4290,-61
4291,-60
4292,-59
4293,-58
4294,-57
4295,-56
4296,-55
4297,-54
4298,-52
4299,-51
4300,-49
4301,-47
4302,-45
4303,-43
4304,-41
4305,-39
4306,-37
4307,-35
4308,-32
4309,-30
4310,-28
4311,-25
4312,-23
4313,-20
4314,-17
4315,-15
4316,-12
4317,-10
4318,-7
4319,-5
4320,-2
4321,0
4322,1
4323,4
4324,6
4325,8
4326,10
4327,11
4328,13
4329,14
4330,16
4331,17
4332,18
4333,18
4334,19
4335,19
4336,19
4337,19
4338,19
4339,19
4340,18
4341,17
4342,16
4343,14
4344,13
4345,11
4346,9
4347,7
4348,5
4349,2
4350,0
4351,-2
4352,-5
4353,-8
4354,-12
4355,-15
4356,-18
4357,-21
4358,-25
4359,-28
4360,-32
4361,-35
4362,-39
4363,-43
4364,-46
4365,-50
4366,-53
4367,-57
4368,-60
4369,-63
4370,-66
4371,-68
4372,-71
4373,-73
4374,-74
4375,-75
4376,-76
4377,-76
4378,-75
4379,-74
4380,-73
4381,-72
4382,-70
4383,-68
4384,-67
4385,-65
4386,-64
4387,-64
4388,-64
4389,-66
4390,-68
4391,-71
4392,-75
4393,-78
4394,-81
4395,-82
4396,-82
4397,-80
4398,-75
4399,-70
4400,-65
4401,-63
4402,-64
4403,-72
4404,-86
4405,-107
4406,-133
4407,-157
4408,-176
4409,-186
4410,-188
4411,-186
4412,-177
4413,-152
4414,-100
4415,-5
4416,133
4417,303
4418,483
4419,640
4420,750
4421,803
4422,798
4423,752
4424,676
4425,584
4426,480
4427,364
4428,237
4429,106
4430,-22
4431,-137
4432,-231
4433,-300
4434,-343
4435,-362
4436,-362
4437,-346
4438,-317
4439,-281
4440,-241
4441,-202
4442,-168
4443,-141
4444,-119
4445,-103
4446,-93
4447,-88
4448,-86
4449,-87
4450,-86
4451,-84
4452,-80
4453,-75
4454,-68
4455,-59
4456,-48
4457,-37
4458,-27
4459,-19
4460,-13
4461,-9
4462,-7
4463,-8
4464,-11
4465,-16
4466,-22
4467,-29
4468,-36
4469,-42
4470,-48
4471,-54
4472,-59
4473,-63
4474,-66
4475,-68
4476,-69
4477,-69
4478,-68
4479,-66
4480,-63
4481,-60
4482,-55
4483,-50
4484,-45
4485,-39
4486,-33
4487,-26
4488,-20
4489,-14
4490,-7
4491,-1
4492,4
4493,11
4494,17
4495,23
4496,29
4497,35
4498,41
4499,47
4500,53
4501,58
4502,64
4503,70
4504,75
4505,81
4506,86
4507,92
4508,97
4509,103
4510,108
4511,114
4512,119
4513,124
4514,130
4515,135
4516,141
4517,147
4518,153
4519,159
4520,165
4521,171
4522,177
4523,184
4524,190
4525,196
4526,201
4527,206
4528,211
4529,215
4530,219
4531,222
4532,223
4533,224
4534,223
4535,222
4536,219
4537,215
4538,209
4539,203
4540,196
4541,188
4542,178
4543,168
4544,158
4545,147
4546,135
4547,123
4548,112
4549,100
4550,89
4551,78
4552,68
4553,58
4554,48
4555,40
4556,32
4557,24
4558,17
4559,12
4560,6
4561,2
4562,-1
4563,-5
4564,-8
4565,-11
4566,-13
4567,-16
4568,-18
4569,-20
4570,-22
4571,-23
4572,-25
4573,-26
4574,-28
4575,-30
4576,-31
4577,-33
4578,-34
4579,-36
4580,-37
4581,-38
4582,-39
4583,-40
4584,-41
4585,-41
4586,-41
4587,-41
4588,-41
4589,-41
4590,-41
4591,-40
4592,-39
4593,-38
4594,-37
4595,-36
4596,-35
4597,-34
4598,-33
4599,-32
4600,-31
4601,-30
4602,-29
4603,-28
4604,-27
4605,-27
4606,-26
4607,-26
4608,-26
4609,-26
4610,-25
4611,-25
4612,-26
4613,-26
4614,-26
4615,-26
4616,-27
4617,-27
4618,-28
4619,-28
4620,-29
4621,-29
4622,-30
4623,-31
4624,-31
4625,-32
4626,-33
4627,-34
4628,-34
4629,-35
4630,-36
4631,-36
4632,-37
4633,-38
4634,-38
4635,-39
4636,-39
4637,-40
4638,-40
4639,-40
4640,-40
4641,-40
4642,-40
4643,-40
4644,-40
4645,-40
4646,-39
4647,-39
4648,-38
4649,-37
4650,-37
4651,-36
4652,-35
4653,-34
4654,-32
4655,-31
4656,-30
4657,-28
4658,-26
4659,-25
4660,-23
4661,-21
4662,-19
4663,-17
4664,-15
4665,-13
4666,-11
4667,-9
4668,-7
4669,-5
4670,-2
4671,0
4672,1
4673,3
4674,5
4675,7
4676,9
4677,11
4678,13
4679,15
4680,17
4681,18
4682,20
4683,21
4684,22
4685,23
4686,24
4687,25
4688,26
4689,26
4690,26
4691,26
4692,26
4693,26
4694,25
4695,25
4696,24
4697,22
4698,21
4699,19
4700,17
4701,15
4702,13
4703,11
4704,8
4705,5
4706,2
4707,0
4708,-3
4709,-7
4710,-10
4711,-14
4712,-17
4713,-21
4714,-25
4715,-29
4716,-33
4717,-37
4718,-41
4719,-45
4720,-49
4721,-54
4722,-58
4723,-62
4724,-65
4725,-69
4726,-72
4727,-75
4728,-78
4729,-80
4730,-82
4731,-83
4732,-83
4733,-83
4734,-83
4735,-82
4736,-80
4737,-79
4738,-77
4739,-75
4740,-73
4741,-72
4742,-71
4743,-71
4744,-73
4745,-75
4746,-79
4747,-83
4748,-87
4749,-90
4750,-93
4751,-93
4752,-92
4753,-88
4754,-84
4755,-80
4756,-79
4757,-82
4758,-91
4759,-106
4760,-129
4761,-157
4762,-188
4763,-217
4764,-239
4765,-248
4766,-240
4767,-209
4768,-154
4769,-73
4770,30
4771,153
4772,286
4773,420
4774,548
4775,657
4776,739
4777,788
4778,797
4779,766
4780,697
4781,595
4782,466
4783,322
4784,172
4785,26
4786,-105
4787,-215
4788,-298
4789,-352
4790,-378
4791,-379
4792,-362
4793,-330
4794,-291
4795,-250
4796,-213
4797,-182
4798,-159
4799,-144
4800,-134
4801,-129
4802,-125
4803,-122
4804,-116
4805,-108
4806,-96
4807,-82
4808,-67
4809,-51
4810,-36
4811,-22
4812,-11
4813,-2
4814,2
4815,4
4816,4
4817,2
4818,-1
4819,-6
4820,-13
4821,-20
4822,-26
4823,-33
4824,-40
4825,-46
4826,-51
4827,-55
4828,-58
4829,-60
4830,-61
4831,-61
4832,-59
4833,-57
4834,-53
4835,-48
4836,-43
4837,-37
4838,-30
4839,-24
4840,-17
4841,-10
4842,-3
4843,3
4844,9
4845,15
4846,21
4847,27
4848,32
4849,36
4850,40
4851,44
4852,48
4853,52
4854,55
4855,58
4856,62
4857,65
4858,68
4859,72
4860,75
4861,79
4862,83
4863,87
4864,92
4865,97
4866,102
4867,108
4868,115
4869,121
4870,128
4871,136
4872,143
4873,151
4874,160
4875,168
4876,176
4877,185
4878,193
4879,201
4880,208
4881,215
4882,221
4883,226
4884,230
4885,233
4886,236
4887,237
4888,236
4889,235
4890,233
4891,229
4892,224
4893,219
4894,212
4895,204
4896,196
4897,187
4898,178
4899,169
4900,159
4901,149
4902,140
4903,131
4904,122
4905,113
4906,104
4907,96
4908,88
4909,81
4910,74
4911,67
4912,61
4913,55
4914,49
4915,44
4916,38
4917,33
4918,27
4919,22
4920,17
4921,12
4922,8
4923,3
4924,0
4925,-4
4926,-9
4927,-12
4928,-16
4929,-19
4930,-22
4931,-25
4932,-27
4933,-29
4934,-31
4935,-33
4936,-34
4937,-35
4938,-36
4939,-36
4940,-37
4941,-37
4942,-37
4943,-37
4944,-37
4945,-36
4946,-36
4947,-35
4948,-35
4949,-35
4950,-34
4951,-34
4952,-33
4953,-33
4954,-32
4955,-32
4956,-31
4957,-31
4958,-30
4959,-30
4960,-30
4961,-30
4962,-30
4963,-30
4964,-30
4965,-30
4966,-30
4967,-30
4968,-30
4969,-30
4970,-31
4971,-31
4972,-31
4973,-32
4974,-32
4975,-33
4976,-33
4977,-34
4978,-34
4979,-35
4980,-35
4981,-36
4982,-36
4983,-37
4984,-37
4985,-38
4986,-38
4987,-38
4988,-39
4989,-39
4990,-39
4991,-39
4992,-40
4993,-40
4994,-40
4995,-40
4996,-40
4997,-39
4998,-39
4999,-39
5000,-39
5001,-38
5002,-38
5003,-37
5004,-36
5005,-36
5006,-35
5007,-34
5008,-33
5009,-32
5010,-31
5011,-30
5012,-28
5013,-27
5014,-26
5015,-24
5016,-23
5017,-21
5018,-20
5019,-18
5020,-16
5021,-15
5022,-13
5023,-11
5024,-9
5025,-7
5026,-6
5027,-4
5028,-2
5029,0
5030,0
5031,2
5032,4
5033,5
5034,7
5035,8
5036,10
5037,11
5038,12
5039,13
5040,14
5041,15
5042,15
5043,16
5044,16
5045,16
5046,16
5047,16
5048,16
5049,15
5050,14
5051,13
5052,12
5053,11
5054,9
5055,7
5056,5
5057,3
5058,1
5059,0
5060,-3
5061,-6
5062,-9
5063,-12
5064,-15
5065,-19
5066,-22
5067,-25
5068,-29
5069,-32
5070,-36
5071,-40
5072,-44
5073,-47
5074,-51
5075,-55
5076,-59
5077,-63
5078,-67
5079,-71
5080,-75
5081,-78
5082,-81
5083,-84
5084,-87
5085,-89
5086,-91
5087,-92
5088,-93
5089,-93
5090,-93
5091,-92
5092,-90
5093,-89
5094,-87
5095,-86
5096,-84
5097,-83
5098,-82
5099,-83
5100,-84
5101,-87
5102,-91
5103,-95
5104,-99
5105,-103
5106,-105
5107,-105
5108,-104
5109,-100
5110,-95
5111,-91
5112,-90
5113,-94
5114,-105
5115,-123
5116,-149
5117,-182
5118,-218
5119,-252
5120,-278
5121,-290
5122,-283
5123,-253
5124,-197
5125,-116
5126,-10
5127,114
5128,249
5129,386
5130,515
5131,628
5132,715
5133,770
5134,788
5135,767
5136,708
5137,615
5138,495
5139,357
5140,209
5141,63
5142,-71
5143,-188
5144,-280
5145,-343
5146,-377
5147,-385
5148,-371
5149,-341
5150,-300
5151,-256
5152,-214
5153,-180
5154,-154
5155,-136
5156,-126
5157,-123
5158,-123
5159,-124
5160,-124
5161,-120
5162,-114
5163,-104
5164,-93
5165,-80
5166,-68
5167,-56
5168,-46
5169,-38
5170,-34
5171,-32
5172,-31
5173,-33
5174,-36
5175,-41
5176,-46
5177,-51
5178,-57
5179,-62
5180,-67
5181,-72
5182,-76
5183,-79
5184,-82
5185,-84
5186,-85
5187,-85
5188,-84
5189,-82
5190,-79
5191,-76
5192,-72
5193,-68
5194,-63
5195,-58
5196,-53
5197,-47
5198,-42
5199,-37
5200,-31
5201,-26
5202,-21
5203,-15
5204,-10
5205,-5
5206,0
5207,5
5208,10
5209,15
5210,21
5211,26
5212,32
5213,37
5214,42
5215,48
5216,54
5217,59
5218,65
5219,70
5220,76
5221,82
5222,87
5223,93
5224,99
5225,105
5226,110
5227,116
5228,123
5229,129
5230,135
5231,142
5232,148
5233,154
5234,160
5235,166
5236,171
5237,176
5238,181
5239,184
5240,188
5241,190
5242,192
5243,193
5244,192
5245,191
5246,189
5247,186
5248,181
5249,176
5250,170
5251,164
5252,157
5253,150
5254,142
5255,134
5256,125
5257,117
5258,108
5259,100
5260,91
5261,83
5262,75
5263,68
5264,61
5265,54
5266,47
5267,40
5268,34
5269,28
5270,22
5271,16
5272,10
5273,4
5274,0
5275,-5
5276,-10
5277,-15
5278,-20
5279,-25
5280,-30
5281,-34
5282,-38
5283,-42
5284,-45
5285,-49
5286,-51
5287,-54
5288,-56
5289,-58
5290,-60
5291,-61
5292,-63
5293,-63
5294,-64
5295,-65
5296,-65
5297,-65
5298,-65
5299,-64
5300,-64
5301,-63
5302,-63
5303,-62
5304,-61
5305,-61
5306,-60
5307,-59
5308,-58
5309,-57
5310,-56
5311,-55
5312,-54
5313,-53
5314,-52
5315,-52
5316,-51
5317,-50
5318,-49
5319,-49
5320,-48
5321,-48
5322,-47
5323,-47
5324,-47
5325,-46
5326,-46
5327,-46
5328,-46
5329,-46
5330,-46
5331,-46
5332,-46
5333,-46
5334,-46
5335,-47
5336,-47
5337,-47
5338,-47
5339,-48
5340,-48
5341,-48
5342,-49
5343,-49
5344,-49
5345,-49
5346,-50
5347,-50
5348,-50
5349,-50
5350,-50
5351,-50
5352,-50
5353,-50
5354,-50
5355,-50
5356,-49
5357,-49
5358,-48
5359,-48
5360,-47
5361,-46
5362,-46
5363,-45
5364,-43
5365,-42
5366,-41
5367,-40
5368,-38
5369,-36
5370,-35
5371,-33
5372,-31
5373,-29
5374,-27
5375,-25
5376,-23
5377,-20
5378,-18
5379,-16
5380,-14
5381,-11
5382,-9
5383,-6
5384,-4
5385,-2
5386,0
5387,2
5388,4
5389,7
5390,9
5391,11
5392,13
5393,15
5394,16
5395,18
5396,19
5397,21
5398,22
5399,23
5400,23
5401,24
5402,24
5403,24
5404,24
5405,24
5406,24
5407,23
5408,22
5409,20
5410,19
5411,17
5412,15
5413,13
5414,11
5415,8
5416,5
5417,2
5418,0
5419,-3
5420,-6
5421,-10
5422,-14
5423,-17
5424,-21
5425,-25
5426,-29
5427,-33
5428,-37
5429,-41
5430,-45
5431,-49
5432,-54
5433,-58
5434,-62
5435,-66
5436,-71
5437,-74
5438,-78
5439,-82
5440,-85
5441,-88
5442,-90
5443,-92
5444,-93
5445,-94
5446,-94
5447,-93
5448,-92
5449,-91
5450,-89
5451,-86
5452,-84
5453,-82
5454,-80
5455,-79
5456,-79
5457,-80
5458,-82
5459,-84
5460,-87
5461,-89
5462,-90
5463,-89
5464,-87
5465,-82
5466,-77
5467,-73
5468,-71
5469,-74
5470,-84
5471,-100
5472,-125
5473,-157
5474,-192
5475,-228
5476,-258
5477,-277
5478,-278
5479,-257
5480,-210
5481,-136
5482,-41
5483,69
5484,188
5485,316
5486,455
5487,600
5488,736
5489,837
5490,875
5491,837
5492,732
5493,586
5494,430
5495,281
5496,148
5497,27
5498,-85
5499,-186
5500,-268
5501,-325
5502,-355
5503,-361
5504,-347
5505,-320
5506,-282
5507,-240
5508,-197
5509,-158
5510,-124
5511,-98
5512,-78
5513,-66
5514,-60
5515,-60
5516,-64
5517,-71
5518,-79
5519,-86
5520,-92
5521,-96
5522,-97
5523,-96
5524,-92
5525,-85
5526,-78
5527,-71
5528,-64
5529,-59
5530,-55
5531,-53
5532,-52
5533,-53
5534,-55
5535,-57
5536,-59
5537,-60
5538,-61
5539,-60
5540,-60
5541,-58
5542,-56
5543,-54
5544,-52
5545,-49
5546,-46
5547,-43
5548,-39
5549,-35
5550,-32
5551,-28
5552,-25
5553,-21
5554,-18
5555,-15
5556,-12
5557,-9
5558,-7
5559,-4
5560,-1
5561,1
5562,4
5563,7
5564,10
5565,14
5566,17
5567,21
5568,26
5569,30
5570,35
5571,41
5572,47
5573,53
5574,60
5575,67
5576,74
5577,80
5578,88
5579,95
5580,102
5581,109
5582,116
5583,123
5584,130
5585,137
5586,144
5587,150
5588,156
5589,161
5590,166
5591,171
5592,175
5593,179
5594,182
5595,185
5596,187
5597,189
5598,190
5599,190
5600,190
5601,188
5602,186
5603,184
5604,180
5605,177
5606,172
5607,168
5608,162
5609,157
5610,151
5611,145
5612,138
5613,131
5614,124
5615,117
5616,110
5617,103
5618,96
5619,89
5620,82
5621,75
5622,68
5623,61
5624,54
5625,48
5626,41
5627,34
5628,28
5629,22
5630,16
5631,10
5632,5
5633,0
5634,-5
5635,-10
5636,-14
5637,-19
5638,-23
5639,-26
5640,-30
5641,-33
5642,-36
5643,-38
5644,-40
5645,-42
5646,-43
5647,-44
5648,-45
5649,-46
5650,-46
5651,-46
5652,-46
5653,-45
5654,-45
5655,-44
5656,-43
5657,-42
5658,-41
5659,-40
5660,-39
5661,-38
5662,-37
5663,-36
5664,-34
5665,-33
5666,-32
5667,-31
5668,-29
5669,-28
5670,-27
5671,-26
5672,-26
5673,-25
5674,-24
5675,-24
5676,-23
5677,-23
5678,-23
5679,-22
5680,-22
5681,-22
5682,-23
5683,-23
5684,-23
5685,-23
5686,-24
5687,-24
5688,-25
5689,-26
5690,-26
5691,-27
5692,-28
5693,-28
5694,-29
5695,-30
5696,-30
5697,-31
5698,-32
5699,-32
5700,-33
5701,-33
5702,-34
5703,-34
5704,-34
5705,-34
5706,-35
5707,-35
5708,-34
5709,-34
5710,-34
5711,-34
5712,-33
5713,-32
5714,-32
5715,-31
5716,-30
5717,-29
5718,-28
5719,-27
5720,-25
5721,-24
5722,-22
5723,-21
5724,-19
5725,-17
5726,-16
5727,-14
5728,-12
5729,-10
5730,-8
5731,-6
5732,-4
5733,-2
5734,0
5735,0
5736,2
5737,4
5738,6
5739,8
5740,9
5741,11
5742,12
5743,13
5744,14
5745,15
5746,16
5747,17
5748,18
5749,18
5750,18
5751,18
5752,18
5753,18
5754,17
5755,17
5756,16
5757,15
5758,13
5759,12
5760,10
5761,8
5762,6
5763,4
5764,1
5765,0
5766,-3
5767,-6
5768,-10
5769,-13
5770,-16
5771,-20
5772,-23
5773,-27
5774,-31
5775,-35
5776,-39
5777,-42
5778,-46
5779,-51
5780,-55
5781,-59
5782,-63
5783,-67
5784,-71
5785,-75
5786,-78
5787,-82
5788,-85
5789,-88
5790,-91
5791,-93
5792,-95
5793,-97
5794,-98
5795,-98
5796,-98
5797,-98
5798,-97
5799,-96
5800,-95
5801,-93
5802,-92
5803,-91
5804,-91
5805,-91
5806,-92
5807,-94
5808,-98
5809,-102
5810,-107
5811,-111
5812,-115
5813,-118
5814,-118
5815,-116
5816,-112
5817,-107
5818,-102
5819,-99
5820,-101
5821,-110
5822,-125
5823,-148
5824,-176
5825,-209
5826,-239
5827,-262
5828,-272
5829,-263
5830,-232
5831,-176
5832,-95
5833,8
5834,129
5835,260
5836,391
5837,514
5838,618
5839,696
5840,741
5841,751
5842,724
5843,661
5844,568
5845,452
5846,320
5847,183
5848,48
5849,-76
5850,-186
5851,-274
5852,-337
5853,-375
5854,-389
5855,-384
5856,-363
5857,-328
5858,-284
5859,-237
5860,-191
5861,-151
5862,-118
5863,-91
5864,-72
5865,-61
5866,-58
5867,-60
5868,-66
5869,-71
5870,-75
5871,-78
5872,-79
5873,-77
5874,-71
5875,-64
5876,-55
5877,-47
5878,-41
5879,-37
5880,-34
5881,-34
5882,-35
5883,-39
5884,-43
5885,-48
5886,-52
5887,-56
5888,-59
5889,-62
5890,-64
5891,-65
5892,-65
5893,-65
5894,-63
5895,-61
5896,-59
5897,-56
5898,-52
5899,-48
5900,-44
5901,-39
5902,-35
5903,-30
5904,-26
5905,-21
5906,-17
5907,-12
5908,-7
5909,-3
5910,1
5911,6
5912,10
5913,15
5914,20
5915,24
5916,29
5917,34
5918,40
5919,45
5920,51
5921,56
5922,62
5923,68
5924,74
5925,81
5926,87
5927,93
5928,99
5929,106
5930,112
5931,118
5932,124
5933,130
5934,136
5935,142
5936,147
5937,152
5938,157
5939,162
5940,166
5941,170
5942,174
5943,177
5944,180
5945,182
5946,184
5947,186
5948,187
5949,187
5950,188
5951,187
5952,187
5953,185
5954,183
5955,181
5956,179
5957,175
5958,172
5959,168
5960,164
5961,159
5962,154
5963,148
5964,143
5965,137
5966,130
5967,124
5968,117
5969,111
5970,104
5971,97
5972,90
5973,83
5974,76
5975,69
5976,62
5977,55
5978,48
5979,42
5980,35
5981,29
5982,23
5983,18
5984,12
5985,7
5986,3
5987,-1
5988,-5
5989,-9
5990,-13
5991,-16
5992,-19
5993,-21
5994,-24
5995,-26
5996,-27
5997,-29
5998,-30
5999,-31
6000,-31
6001,-32
6002,-32
6003,-32
6004,-31
6005,-31
6006,-30
6007,-30
6008,-29
6009,-28
6010,-27
6011,-26
6012,-25
6013,-24
6014,-23
6015,-22
6016,-20
6017,-19
6018,-18
6019,-17
6020,-16
6021,-15
6022,-14
6023,-13
6024,-13
6025,-12
6026,-11
6027,-11
6028,-10
6029,-10
6030,-10
6031,-9
6032,-9
6033,-9
6034,-9
6035,-9
6036,-9
6037,-8
6038,-8
6039,-8
6040,-8
6041,-8
6042,-8
6043,-8
6044,-8
6045,-8
6046,-8
6047,-7
6048,-7
6049,-7
6050,-6
6051,-5
6052,-5
6053,-4
6054,-3
6055,-2
6056,-1
6057,0
6058,0
6059,1
6060,2
6061,3
6062,5
6063,6
6064,8
6065,9
6066,11
6067,13
6068,14
6069,16
6070,17
6071,19
6072,21
6073,22
6074,24
6075,25
6076,27
6077,28
6078,29
6079,30
6080,32
6081,32
6082,33
6083,34
6084,35
6085,35
6086,35
6087,35
6088,35
6089,35
6090,35
6091,34
6092,34
6093,33
6094,32
6095,31
6096,29
6097,27
6098,26
6099,24
6100,21
6101,19
6102,16
6103,14
6104,11
6105,8
6106,5
6107,1
6108,-1
6109,-4
6110,-8
6111,-12
6112,-15
6113,-19
6114,-23
6115,-27
6116,-30
6117,-34
6118,-38
6119,-42
6120,-46
6121,-50
6122,-54
6123,-58
6124,-62
6125,-65
6126,-69
6127,-72
6128,-76
6129,-79
6130,-81
6131,-84
6132,-86
6133,-87
6134,-88
6135,-88
6136,-88
6137,-87
6138,-86
6139,-84
6140,-82
6141,-80
6142,-78
6143,-77
6144,-75
6145,-74
6146,-75
6147,-76
6148,-79
6149,-82
6150,-86
6151,-90
6152,-93
6153,-94
6154,-93
6155,-91
6156,-86
6157,-81
6158,-77
6159,-76
6160,-81
6161,-93
6162,-113
6163,-139
6164,-172
6165,-206
6166,-237
6167,-258
6168,-265
6169,-252
6170,-214
6171,-151
6172,-62
6173,48
6174,176
6175,310
6176,443
6177,565
6178,665
6179,735
6180,771
6181,767
6182,725
6183,646
6184,537
6185,406
6186,260
6187,111
6188,-31
6189,-161
6190,-269
6191,-351
6192,-403
6193,-427
6194,-424
6195,-397
6196,-353
6197,-298
6198,-237
6199,-179
6200,-128
6201,-87
6202,-59
6203,-45
6204,-42
6205,-50
6206,-65
6207,-82
6208,-99
6209,-113
6210,-121
6211,-124
6212,-120
6213,-111
6214,-98
6215,-82
6216,-67
6217,-53
6218,-42
6219,-33
6220,-27
6221,-25
6222,-25
6223,-26
6224,-29
6225,-32
6226,-36
6227,-39
6228,-42
6229,-46
6230,-49
6231,-52
6232,-55
6233,-58
6234,-60
6235,-62
6236,-63
6237,-63
6238,-63
6239,-61
6240,-60
6241,-57
6242,-54
6243,-51
6244,-47
6245,-42
6246,-37
6247,-32
6248,-26
6249,-21
6250,-15
6251,-8
6252,-2
6253,3
6254,9
6255,15
6256,22
6257,28
6258,34
6259,41
6260,47
6261,53
6262,60
6263,66
6264,72
6265,78
6266,85
6267,91
6268,97
6269,103
6270,109
6271,115
6272,121
6273,127
6274,132
6275,138
6276,143
6277,147
6278,152
6279,156
6280,159
6281,163
6282,165
6283,168
6284,170
6285,171
6286,172
6287,173
6288,173
6289,172
6290,171
6291,170
6292,168
6293,166
6294,163
6295,160
6296,156
6297,152
6298,148
6299,143
6300,138
6301,132
6302,126
6303,120
6304,114
6305,107
6306,101
6307,94
6308,87
6309,80
6310,73
6311,66
6312,59
6313,52
6314,45
6315,38
6316,32
6317,25
6318,19
6319,13
6320,7
6321,2
6322,-3
6323,-8
6324,-13
6325,-17
6326,-21
6327,-25
6328,-29
6329,-32
6330,-35
6331,-37
6332,-40
6333,-42
6334,-43
6335,-45
6336,-46
6337,-47
6338,-48
6339,-48
6340,-49
6341,-49
6342,-49
6343,-49
6344,-48
6345,-48
6346,-47
6347,-47
6348,-46
6349,-46
6350,-45
6351,-44
6352,-44
6353,-43
6354,-43
6355,-42
6356,-42
6357,-41
6358,-41
6359,-41
6360,-40
6361,-40
6362,-40
6363,-40
6364,-40
6365,-40
6366,-41
6367,-41
6368,-41
6369,-42
6370,-42
6371,-43
6372,-43
6373,-44
6374,-44
6375,-45
6376,-45
6377,-46
6378,-46
6379,-47
6380,-47
6381,-47
6382,-47
6383,-47
6384,-47
6385,-47
6386,-47
6387,-47
6388,-46
6389,-46
6390,-45
6391,-44
6392,-43
6393,-42
6394,-41
6395,-39
6396,-38
6397,-36
6398,-35
6399,-33
6400,-31
6401,-29
6402,-27
6403,-25
6404,-23
6405,-21
6406,-19
6407,-17
6408,-15
6409,-13
6410,-11
6411,-8
6412,-6
6413,-4
6414,-2
6415,-1
6416,0
6417,2
6418,3
6419,5
6420,6
6421,7
6422,8
6423,9
6424,9
6425,10
6426,10
6427,10
6428,10
6429,10
6430,9
6431,9
6432,8
6433,6
6434,5
6435,4
6436,2
6437,0
6438,-1
6439,-4
6440,-6
6441,-9
6442,-12
6443,-15
6444,-18
6445,-22
6446,-25
6447,-29
6448,-32
6449,-36
6450,-40
6451,-44
6452,-48
6453,-52
6454,-56
6455,-60
6456,-64
6457,-69
6458,-73
6459,-77
6460,-81
6461,-85
6462,-89
6463,-93
6464,-96
6465,-99
6466,-102
6467,-104
6468,-106
6469,-108
6470,-109
6471,-109
6472,-109
6473,-109
6474,-109
6475,-109
6476,-108
6477,-108
6478,-108
6479,-109
6480,-110
6481,-111
6482,-114
6483,-118
6484,-123
6485,-128
6486,-133
6487,-137
6488,-140
6489,-140
6490,-137
6491,-133
6492,-126
6493,-121
6494,-118
6495,-120
6496,-127
6497,-141
6498,-162
6499,-189
6500,-219
6501,-246
6502,-265
6503,-271
6504,-260
6505,-225
6506,-167
6507,-84
6508,19
6509,139
6510,267
6511,395
6512,512
6513,609
6514,678
6515,714
6516,712
6517,672
6518,598
6519,495
6520,370
6521,233
6522,94
6523,-37
6524,-155
6525,-253
6526,-326
6527,-371
6528,-391
6529,-389
6530,-369
6531,-336
6532,-294
6533,-249
6534,-205
6535,-167
6536,-137
6537,-114
6538,-98
6539,-88
6540,-84
6541,-85
6542,-87
6543,-90
6544,-91
6545,-91
6546,-88
6547,-85
6548,-79
6549,-72
6550,-64
6551,-57
6552,-51
6553,-47
6554,-45
6555,-45
6556,-46
6557,-50
6558,-54
6559,-60
6560,-65
6561,-69
6562,-73
6563,-77
6564,-80
6565,-82
6566,-83
6567,-83
6568,-82
6569,-81
6570,-78
6571,-76
6572,-72
6573,-68
6574,-63
6575,-58
6576,-53
6577,-48
6578,-42
6579,-37
6580,-31
6581,-26
6582,-20
6583,-15
6584,-9
6585,-4
6586,1
6587,6
6588,12
6589,17
6590,23
6591,28
6592,34
6593,40
6594,46
6595,52
6596,59
6597,65
6598,72
6599,78
6600,85
6601,91
6602,97
6603,104
6604,110
6605,117
6606,123
6607,129
6608,135
6609,140
6610,146
6611,151
6612,156
6613,161
6614,166
6615,171
6616,175
6617,179
6618,183
6619,187
6620,190
6621,192
6622,195
6623,196
6624,197
6625,198
6626,198
6627,197
6628,196
6629,194
6630,192
6631,189
6632,184
6633,180
6634,174
6635,169
6636,162
6637,156
6638,149
6639,141
6640,134
6641,126
6642,118
6643,109
6644,101
6645,93
6646,84
6647,76
6648,69
6649,61
6650,53
6651,46
6652,39
6653,32
6654,25
6655,18
6656,12
6657,6
6658,0
6659,-5
6660,-10
6661,-15
6662,-19
6663,-24
6664,-28
6665,-32
6666,-35
6667,-38
6668,-41
6669,-44
6670,-46
6671,-48
6672,-49
6673,-50
6674,-51
6675,-52
6676,-52
6677,-52
6678,-52
6679,-51
6680,-51
6681,-50
6682,-49
6683,-48
6684,-47
6685,-45
6686,-44
6687,-43
6688,-41
6689,-40
6690,-38
6691,-37
6692,-35
6693,-34
6694,-32
6695,-31
6696,-29
6697,-28
6698,-26
6699,-25
6700,-24
6701,-23
6702,-22
6703,-21
6704,-20
6705,-19
6706,-18
6707,-17
6708,-16
6709,-16
6710,-15
6711,-14
6712,-14
6713,-13
6714,-12
6715,-11
6716,-11
6717,-10
6718,-9
6719,-9
6720,-8
6721,-7
6722,-6
6723,-5
6724,-4
6725,-3
6726,-2
6727,0
6728,0
6729,1
6730,3
6731,4
6732,6
6733,7
6734,9
6735,11
6736,12
6737,14
6738,16
6739,18
6740,20
6741,21
6742,23
6743,25
6744,27
6745,29
6746,30
6747,32
6748,34
6749,35
6750,37
6751,38
6752,39
6753,41
6754,42
6755,43
6756,44
6757,44
6758,45
6759,45
6760,46
6761,46
6762,46
6763,45
6764,45
6765,44
6766,43
6767,42
6768,41
6769,39
6770,38
6771,36
6772,34
6773,32
6774,29
6775,27
6776,24
6777,21
6778,18
6779,15
6780,11
6781,8
6782,4
6783,1
6784,-2
6785,-6
6786,-10
6787,-14
6788,-18
6789,-23
6790,-27
6791,-31
6792,-36
6793,-40
6794,-45
6795,-49
6796,-53
6797,-57
6798,-61
6799,-65
6800,-68
6801,-71
6802,-73
6803,-74
6804,-75
6805,-76
6806,-76
6807,-75
6808,-74
6809,-72
6810,-70
6811,-67
6812,-64
6813,-61
6814,-59
6815,-56
6816,-54
6817,-54
6818,-54
6819,-56
6820,-59
6821,-63
6822,-67
6823,-70
6824,-73
6825,-74
6826,-73
6827,-70
6828,-67
6829,-64
6830,-64
6831,-69
6832,-79
6833,-96
6834,-120
6835,-150
6836,-185
6837,-219
6838,-247
6839,-265
6840,-267
6841,-250
6842,-208
6843,-143
6844,-53
6845,54
6846,177
6847,305
6848,430
6849,543
6850,635
6851,698
6852,728
6853,722
6854,679
6855,602
6856,497
6857,371
6858,233
6859,92
6860,-42
6861,-164
6862,-265
6863,-342
6864,-392
6865,-415
6866,-414
6867,-392
6868,-354
6869,-304
6870,-248
6871,-192
6872,-141
6873,-97
6874,-62
6875,-39
6876,-26
6877,-23
6878,-28
6879,-38
6880,-51
6881,-63
6882,-73
6883,-80
6884,-83
6885,-81
6886,-75
6887,-67
6888,-57
6889,-48
6890,-41
6891,-36
6892,-33
6893,-32
6894,-34
6895,-37
6896,-42
6897,-46
6898,-50
6899,-54
6900,-57
6901,-59
6902,-60
6903,-60
6904,-60
6905,-59
6906,-57
6907,-55
6908,-52
6909,-48
6910,-45
6911,-41
6912,-37
6913,-32
6914,-28
6915,-24
6916,-19
6917,-15
6918,-11
6919,-6
6920,-2
6921,1
6922,5
6923,10
6924,14
6925,18
6926,22
6927,27
6928,32
6929,37
6930,41
6931,46
6932,52
6933,57
6934,62
6935,67
6936,72
6937,78
6938,83
6939,89
6940,94
6941,99
6942,105
6943,110
6944,115
6945,120
6946,126
6947,131
6948,136
6949,141
6950,147
6951,152
6952,157
6953,161
6954,166
6955,170
6956,173
6957,177
6958,179
6959,182
6960,183
6961,184
6962,185
6963,184
6964,183
6965,181
6966,177
6967,174
6968,169
6969,164
6970,158
6971,152
6972,145
6973,138
6974,130
6975,123
6976,115
6977,107
6978,99
6979,90
6980,82
6981,75
6982,67
6983,59
6984,52
6985,45
6986,38
6987,31
6988,24
6989,18
6990,11
6991,5
6992,0
6993,-6
6994,-11
6995,-17
6996,-22
6997,-27
6998,-32
6999,-37
7000,-41
7001,-45
7002,-49
7003,-52
7004,-55
7005,-58
7006,-61
7007,-63
7008,-65
7009,-66
7010,-68
7011,-69
7012,-70
7013,-70
7014,-71
7015,-71
7016,-71
7017,-71
7018,-71
7019,-71
7020,-70
7021,-70
7022,-69
7023,-69
7024,-68
7025,-67
7026,-67
7027,-66
7028,-65
7029,-65
7030,-64
7031,-63
7032,-63
7033,-62
7034,-62
7035,-61
7036,-61
7037,-60
7038,-60
7039,-59
7040,-59
7041,-59
7042,-58
7043,-58
7044,-57
7045,-57
7046,-57
7047,-56
7048,-55
7049,-55
7050,-54
7051,-53
7052,-52
7053,-51
7054,-50
7055,-49
7056,-48
7057,-47
7058,-45
7059,-43
7060,-42
7061,-40
7062,-38
7063,-36
7064,-34
7065,-31
7066,-29
7067,-26
7068,-24
7069,-21
7070,-18
7071,-15
7072,-13
7073,-10
7074,-7
7075,-4
7076,-1
7077,1
7078,4
7079,7
7080,9
7081,12
7082,15
7083,17
7084,19
7085,21
7086,24
7087,25
7088,27
7089,29
7090,30
7091,31
7092,32
7093,33
7094,33
7095,33
7096,33
7097,33
7098,32
7099,31
7100,30
7101,29
7102,27
7103,25
7104,23
7105,21
7106,18
7107,16
7108,13
7109,10
7110,6
7111,3
7112,0
7113,-4
7114,-7
7115,-11
7116,-15
7117,-19
7118,-23
7119,-27
7120,-32
7121,-36
7122,-40
7123,-44
7124,-49
7125,-53
7126,-57
7127,-61
7128,-65
7129,-68
7130,-72
7131,-75
7132,-78
7133,-80
7134,-82
7135,-84
7136,-85
7137,-85
7138,-85
7139,-85
7140,-84
7141,-82
7142,-81
7143,-79
7144,-77
7145,-76
7146,-75
7147,-75
7148,-75
7149,-77
7150,-79
7151,-83
7152,-87
7153,-91
7154,-94
7155,-96
7156,-97
7157,-95
7158,-91
7159,-86
7160,-81
7161,-79
7162,-81
7163,-89
7164,-104
7165,-127
7166,-154
7167,-182
7168,-207
7169,-225
7170,-236
7171,-238
7172,-222
7173,-180
7174,-110
7175,-8
7176,114
7177,251
7178,399
7179,545
7180,679
7181,780
7182,825
7183,804
7184,721
7185,596
7186,455
7187,314
7188,179
7189,50
7190,-76
7191,-194
7192,-295
7193,-371
7194,-418
7195,-438
7196,-434
7197,-412
7198,-374
7199,-325
7200,-272
7201,-220
7202,-173
7203,-133
7204,-102
7205,-79
7206,-66
7207,-61
7208,-62
7209,-66
7210,-71
7211,-74
7212,-75
7213,-74
7214,-70
7215,-63
7216,-54
7217,-43
7218,-34
7219,-26
7220,-21
7221,-18
7222,-18
7223,-20
7224,-25
7225,-31
7226,-38
7227,-44
7228,-50
7229,-55
7230,-60
7231,-64
7232,-66
7233,-68
7234,-68
7235,-68
7236,-67
7237,-64
7238,-61
7239,-58
7240,-53
7241,-48
7242,-42
7243,-37
7244,-31
7245,-25
7246,-19
7247,-14
7248,-8
7249,-2
7250,2
7251,8
7252,13
7253,18
7254,23
7255,28
7256,33
7257,38
7258,43
7259,48
7260,53
7261,58
7262,63
7263,69
7264,74
7265,80
7266,86
7267,91
7268,97
7269,103
7270,109
7271,114
7272,120
7273,125
7274,130
7275,135
7276,140
7277,145
7278,149
7279,153
7280,157
7281,160
7282,163
7283,166
7284,168
7285,170
7286,171
7287,173
7288,173
7289,173
7290,173
7291,173
7292,171
7293,170
7294,168
7295,165
7296,162
7297,159
7298,155
7299,151
7300,146
7301,141
7302,136
7303,130
7304,124
7305,118
7306,112
7307,105
7308,98
7309,91
7310,84
7311,77
7312,70
7313,63
7314,55
7315,48
7316,41
7317,34
7318,27
7319,20
7320,14
7321,7
7322,1
7323,-4
7324,-10
7325,-15
7326,-20
7327,-25
7328,-30
7329,-34
7330,-38
7331,-42
7332,-45
7333,-48
7334,-51
7335,-53
7336,-55
7337,-57
7338,-59
7339,-60
7340,-61
7341,-62
7342,-63
7343,-64
7344,-64
7345,-64
7346,-64
7347,-64
7348,-64
7349,-63
7350,-63
7351,-62
7352,-62
7353,-61
7354,-60
7355,-60
7356,-59
7357,-58
7358,-57
7359,-57
7360,-56
7361,-55
7362,-54
7363,-53
7364,-52
7365,-52
7366,-51
7367,-50
7368,-49
7369,-48
7370,-47
7371,-46
7372,-45
7373,-44
7374,-43
7375,-41
7376,-40
7377,-39
7378,-37
7379,-36
7380,-34
7381,-32
7382,-31
7383,-29
7384,-27
7385,-24
7386,-22
7387,-20
7388,-18
7389,-15
7390,-13
7391,-10
7392,-8
7393,-5
7394,-3
7395,0
7396,2
7397,4
7398,7
7399,9
7400,12
7401,14
7402,17
7403,19
7404,21
7405,23
7406,25
7407,27
7408,28
7409,30
7410,31
7411,32
7412,32
7413,33
7414,33
7415,33
7416,33
7417,33
7418,32
7419,31
7420,30
7421,29
7422,27
7423,25
7424,23
7425,20
7426,18
7427,15
7428,12
7429,9
7430,6
7431,2
7432,-1
7433,-4
7434,-8
7435,-12
7436,-16
7437,-20
7438,-24
7439,-28
7440,-32
7441,-36
7442,-40
7443,-45
7444,-49
7445,-53
7446,-57
7447,-61
7448,-65
7449,-69
7450,-73
7451,-76
7452,-80
7453,-82
7454,-85
7455,-87
7456,-88
7457,-89
7458,-90
7459,-89
7460,-88
7461,-87
7462,-85
7463,-82
7464,-79
7465,-76
7466,-74
7467,-71
7468,-69
7469,-68
7470,-68
7471,-69
7472,-71
7473,-74
7474,-77
7475,-80
7476,-82
7477,-82
7478,-82
7479,-79
7480,-76
7481,-74
7482,-74
7483,-79
7484,-90
7485,-107
7486,-132
7487,-164
7488,-200
7489,-235
7490,-265
7491,-284
7492,-287
7493,-269
7494,-226
7495,-157
7496,-63
7497,51
7498,182
7499,319
7500,453
7501,575
7502,675
7503,745
7504,778
7505,771
7506,726
7507,644
7508,531
7509,396
7510,248
7511,99
7512,-41
7513,-167
7514,-269
7515,-343
7516,-389
7517,-408
7518,-403
7519,-380
7520,-345
7521,-303
7522,-261
7523,-224
7524,-193
7525,-171
7526,-156
7527,-147
7528,-142
7529,-139
7530,-136
7531,-131
7532,-122
7533,-111
7534,-97
7535,-82
7536,-67
7537,-52
7538,-39
7539,-28
7540,-20
7541,-15
7542,-13
7543,-13
7544,-15
7545,-18
7546,-23
7547,-28
7548,-35
7549,-41
7550,-47
7551,-53
7552,-59
7553,-64
7554,-68
7555,-72
7556,-74
7557,-75
7558,-76
7559,-75
7560,-74
7561,-71
7562,-68
7563,-64
7564,-60
7565,-55
7566,-49
7567,-44
7568,-38
7569,-33
7570,-27
7571,-21
7572,-16
7573,-11
7574,-5
7575,0
7576,4
7577,9
7578,14
7579,18
7580,23
7581,27
7582,32
7583,36
7584,41
7585,45
7586,49
7587,54
7588,58
7589,63
7590,68
7591,72
7592,77
7593,82
7594,87
7595,93
7596,99
7597,105
7598,111
7599,117
7600,124
7601,131
7602,137
7603,144
7604,151
7605,157
7606,163
7607,168
7608,173
7609,177
7610,180
7611,183
7612,184
7613,184
7614,183
7615,181
7616,178
7617,174
7618,169
7619,163
7620,156
7621,149
7622,141
7623,132
7624,124
7625,115
7626,106
7627,98
7628,89
7629,81
7630,73
7631,65
7632,58
7633,51
7634,44
7635,38
7636,32
7637,26
7638,20
7639,14
7640,9
7641,4
7642,-1
7643,-6
7644,-11
7645,-16
7646,-21
7647,-26
7648,-30
7649,-35
7650,-39
7651,-44
7652,-48
7653,-51
7654,-55
7655,-58
7656,-61
7657,-64
7658,-66
7659,-68
7660,-70
7661,-72
7662,-73
7663,-75
7664,-76
7665,-76
7666,-77
7667,-77
7668,-78
7669,-78
7670,-78
7671,-78
7672,-78
7673,-77
7674,-77
7675,-77
7676,-76
7677,-76
7678,-75
7679,-74
7680,-73
7681,-73
7682,-72
7683,-71
7684,-70
7685,-69
7686,-67
7687,-66
7688,-65
7689,-63
7690,-62
7691,-60
7692,-59
7693,-57
7694,-55
7695,-53
7696,-51
7697,-49
7698,-47
7699,-44
7700,-42
7701,-39
7702,-36
7703,-34
7704,-31
7705,-28
7706,-25
7707,-22
7708,-19
7709,-16
7710,-13
7711,-9
7712,-6
7713,-3
7714,0
7715,2
7716,6
7717,9
7718,12
7719,15
7720,17
7721,20
7722,23
7723,25
7724,28
7725,30
7726,32
7727,34
7728,35
7729,37
7730,38
7731,39
7732,40
7733,40
7734,41
7735,41
7736,41
7737,40
7738,40
7739,39
7740,38
7741,36
7742,35
7743,33
7744,31
7745,28
7746,26
7747,23
7748,20
7749,17
7750,14
7751,11
7752,7
7753,4
7754,0
7755,-3
7756,-6
7757,-10
7758,-14
7759,-18
7760,-22
7761,-26
7762,-30
7763,-34
7764,-38
7765,-42
7766,-46
7767,-50
7768,-53
7769,-57
7770,-60
7771,-63
7772,-66
7773,-68
7774,-70
7775,-71
7776,-72
7777,-72
7778,-72
7779,-72
7780,-71
7781,-70
7782,-69
7783,-68
7784,-67
7785,-67
7786,-67
7787,-67
7788,-69
7789,-72
7790,-76
7791,-80
7792,-84
7793,-88
7794,-90
7795,-91
7796,-89
7797,-85
7798,-80
7799,-76
7800,-73
7801,-75
7802,-83
7803,-98
7804,-121
7805,-150
7806,-180
7807,-205
7808,-222
7809,-232
7810,-239
7811,-236
7812,-211
7813,-152
7814,-46
7815,100
7816,267
7817,433
7818,577
7819,686
7820,760
7821,800
7822,807
7823,778
7824,712
7825,607
7826,466
7827,304
7828,139
7829,-15
7830,-142
7831,-241
7832,-312
7833,-358
7834,-386
7835,-395
7836,-382
7837,-352
7838,-305
7839,-251
7840,-197
7841,-147
7842,-104
7843,-70
7844,-45
7845,-30
7846,-24
7847,-26
7848,-32
7849,-41
7850,-50
7851,-57
7852,-62
7853,-64
7854,-61
7855,-55
7856,-46
7857,-37
7858,-28
7859,-21
7860,-16
7861,-14
7862,-14
7863,-16
7864,-21
7865,-27
7866,-32
7867,-38
7868,-43
7869,-47
7870,-50
7871,-53
7872,-54
7873,-55
7874,-54
7875,-53
7876,-51
7877,-48
7878,-45
7879,-40
7880,-36
7881,-31
7882,-26
7883,-20
7884,-15
7885,-9
7886,-4
7887,1
7888,6
7889,11
7890,16
7891,21
7892,26
7893,31
7894,36
7895,41
7896,45
7897,50
7898,55
7899,60
7900,65
7901,70
7902,75
7903,81
7904,86
7905,91
7906,97
7907,102
7908,108
7909,113
7910,118
7911,123
7912,128
7913,133
7914,138
7915,142
7916,147
7917,151
7918,154
7919,158
7920,161
7921,164
7922,167
7923,169
7924,171
7925,172
7926,173
7927,174
7928,174
7929,174
7930,173
7931,172
7932,171
7933,169
7934,167
7935,164
7936,161
7937,158
7938,154
7939,149
7940,145
7941,140
7942,135
7943,129
7944,124
7945,118
7946,111
7947,105
7948,98
7949,92
7950,85
7951,78
7952,71
7953,65
7954,58
7955,51
7956,44
7957,38
7958,31
7959,25
7960,18
7961,12
7962,7
7963,1
7964,-3
7965,-9
7966,-13
7967,-18
7968,-22
7969,-26
7970,-30
7971,-34
7972,-37
7973,-40
7974,-43
7975,-45
7976,-47
7977,-49
7978,-51
7979,-52
7980,-53
7981,-54
7982,-55
7983,-56
7984,-56
7985,-57
7986,-57
7987,-57
7988,-57
7989,-57
7990,-56
7991,-56
7992,-56
7993,-55
7994,-54
7995,-54
7996,-53
7997,-52
7998,-51
7999,-50
8000,-49
8001,-48
8002,-47
8003,-46
8004,-45
8005,-44
8006,-42
8007,-41
8008,-39
8009,-38
8010,-36
8011,-34
8012,-32
8013,-31
8014,-29
8015,-26
8016,-24
8017,-22
8018,-20
8019,-17
8020,-14
8021,-12
8022,-9
8023,-6
8024,-3
8025,-1
8026,1
8027,4
8028,7
8029,10
8030,13
8031,16
8032,19
8033,22
8034,25
8035,28
8036,31
8037,34
8038,36
8039,38
8040,41
8041,43
8042,45
8043,46
8044,48
8045,49
8046,50
8047,51
8048,52
8049,52
8050,53
8051,52
8052,52
8053,51
8054,51
8055,49
8056,48
8057,46
8058,44
8059,42
8060,39
8061,37
8062,34
8063,30
8064,27
8065,24
8066,20
8067,16
8068,12
8069,8
8070,4
8071,0
8072,-4
8073,-8
8074,-13
8075,-17
8076,-22
8077,-26
8078,-31
8079,-35
8080,-40
8081,-44
8082,-49
8083,-53
8084,-57
8085,-61
8086,-64
8087,-67
8088,-70
8089,-73
8090,-75
8091,-76
8092,-77
8093,-78
8094,-78
8095,-78
8096,-77
8097,-76
8098,-75
8099,-74
8100,-74
8101,-73
8102,-73
8103,-74
8104,-76
8105,-79
8106,-83
8107,-88
8108,-93
8109,-98
8110,-102
8111,-104
8112,-104
8113,-102
8114,-98
8115,-93
8116,-89
8117,-89
8118,-94
8119,-104
8120,-122
8121,-147
8122,-177
8123,-208
8124,-235
8125,-253
8126,-256
8127,-240
8128,-200
8129,-136
8130,-49
8131,58
8132,178
8133,302
8134,422
8135,529
8136,611
8137,663
8138,680
8139,660
8140,605
8141,517
8142,404
8143,274
8144,138
8145,4
8146,-119
8147,-226
8148,-310
8149,-367
8150,-397
8151,-404
8152,-389
8153,-358
8154,-314
8155,-264
8156,-213
8157,-166
8158,-126
8159,-95
8160,-73
8161,-60
8162,-57
8163,-62
8164,-71
8165,-82
8166,-92
8167,-101
8168,-107
8169,-110
8170,-109
8171,-104
8172,-97
8173,-88
8174,-79
8175,-71
8176,-65
8177,-60
8178,-58
8179,-57
8180,-58
8181,-59
8182,-61
8183,-63
8184,-64
8185,-64
8186,-64
8187,-64
8188,-62
8189,-60
8190,-58
8191,-56
8192,-53
8193,-51
8194,-48
8195,-44
8196,-41
8197,-37
8198,-34
8199,-30
8200,-26
8201,-23
8202,-20
8203,-17
8204,-14
8205,-12
8206,-9
8207,-6
8208,-3
8209,0
8210,2
8211,5
8212,9
8213,12
8214,16
8215,20
8216,25
8217,30
8218,35
8219,41
8220,47
8221,54
8222,61
8223,68
8224,75
8225,82
8226,89
8227,96
8228,103
8229,110
8230,116
8231,122
8232,128
8233,134
8234,139
8235,143
8236,147
8237,151
8238,154
8239,156
8240,158
8241,160
8242,161
8243,162
8244,162
8245,162
8246,161
8247,160
8248,158
8249,156
8250,153
8251,151
8252,147
8253,144
8254,140
8255,136
8256,131
8257,126
8258,120
8259,115
8260,109
8261,103
8262,96
8263,89
8264,83
8265,76
8266,69
8267,62
8268,55
8269,47
8270,40
8271,33
8272,27
8273,20
8274,13
8275,7
8276,0
8277,-5
8278,-10
8279,-16
8280,-21
8281,-26
8282,-31
8283,-35
8284,-40
8285,-44
8286,-47
8287,-50
8288,-53
8289,-56
8290,-59
8291,-61
8292,-63
8293,-64
8294,-66
8295,-67
8296,-68
8297,-69
8298,-70
8299,-70
8300,-70
8301,-70
8302,-70
8303,-70
8304,-70
8305,-69
8306,-69
8307,-68
8308,-68
8309,-67
8310,-66
8311,-65
8312,-65
8313,-64
8314,-63
8315,-61
8316,-60
8317,-59
8318,-58
8319,-57
8320,-55
8321,-54
8322,-53
8323,-51
8324,-49
8325,-48
8326,-46
8327,-44
8328,-43
8329,-41
8330,-39
8331,-37
8332,-34
8333,-32
8334,-30
8335,-28
8336,-25
8337,-23
8338,-21
8339,-18
8340,-15
8341,-13
8342,-10
8343,-8
8344,-5
8345,-3
8346,0
8347,1
8348,4
8349,6
8350,9
8351,11
8352,13
8353,15
8354,17
8355,18
8356,20
8357,21
8358,23
8359,24
8360,25
8361,25
8362,26
8363,26
8364,26
8365,26
8366,25
8367,25
8368,24
8369,22
8370,21
8371,19
8372,17
8373,15
8374,13
8375,10
8376,8
8377,5
8378,1
8379,-1
8380,-4
8381,-8
8382,-11
8383,-15
8384,-19
8385,-23
8386,-26
8387,-30
8388,-34
8389,-38
8390,-41
8391,-45
8392,-49
8393,-52
8394,-56
8395,-59
8396,-62
8397,-65
8398,-68
8399,-70
8400,-73
8401,-75
8402,-77
8403,-79
8404,-80
8405,-81
8406,-82
8407,-83
8408,-83
8409,-82
8410,-82
8411,-82
8412,-82
8413,-84
8414,-87
8415,-91
8416,-95
8417,-101
8418,-107
8419,-113
8420,-115
8421,-113
8422,-107
8423,-97
8424,-83
8425,-67
8426,-50
8427,-34
8428,-22
8429,-20
8430,-28
8431,-47
8432,-77
8433,-114
8434,-158
8435,-205
8436,-247
8437,-278
8438,-293
8439,-288
8440,-259
8441,-206
8442,-127
8443,-28
8444,82
8445,196
8446,309
8447,417
8448,521
8449,614
8450,678
8451,700
8452,663
8453,569
8454,437
8455,287
8456,140
8457,8
8458,-107
8459,-207
8460,-287
8461,-346
8462,-379
8463,-385
8464,-369
8465,-337
8466,-295
8467,-251
8468,-209
8469,-175
8470,-150
8471,-133
8472,-125
8473,-123
8474,-125
8475,-128
8476,-130
8477,-130
8478,-126
8479,-119
8480,-111
8481,-101
8482,-90
8483,-80
8484,-71
8485,-64
8486,-59
8487,-55
8488,-53
8489,-52
8490,-52
8491,-52
8492,-53
8493,-53
8494,-54
8495,-55
8496,-55
8497,-55
8498,-54
8499,-53
8500,-52
8501,-50
8502,-48
8503,-45
8504,-42
8505,-39
8506,-36
8507,-32
8508,-29
8509,-25
8510,-21
8511,-18
8512,-14
8513,-10
8514,-6
8515,-3
8516,0
8517,3
8518,7
8519,11
8520,14
8521,18
8522,22
8523,25
8524,29
8525,33
8526,38
8527,42
8528,46
8529,51
8530,55
8531,60
8532,65
8533,70
8534,75
8535,80
8536,85
8537,90
8538,95
8539,100
8540,105
8541,110
8542,115
8543,119
8544,124
8545,128
8546,132
8547,136
8548,139
8549,142
8550,145
8551,148
8552,150
8553,152
8554,153
8555,154
8556,155
8557,155
8558,155
8559,154
8560,153
8561,152
8562,150
8563,147
8564,145
8565,141
8566,138
8567,134
8568,129
8569,125
8570,120
8571,114
8572,108
8573,102
8574,96
8575,90
8576,83
8577,77
8578,70
8579,63
8580,56
8581,49
8582,42
8583,35
8584,28
8585,21
8586,14
8587,8
8588,1
8589,-4
8590,-10
8591,-16
8592,-21
8593,-27
8594,-32
8595,-37
8596,-41
8597,-45
8598,-49
8599,-53
8600,-56
8601,-59
8602,-62
8603,-64
8604,-66
8605,-68
8606,-70
8607,-71
8608,-72
8609,-73
8610,-73
8611,-73
8612,-73
8613,-73
8614,-73
8615,-72
8616,-71
8617,-70
8618,-69
8619,-68
8620,-66
8621,-65
8622,-63
8623,-61
8624,-59
8625,-57
8626,-55
8627,-53
8628,-51
8629,-48
8630,-46
8631,-43
8632,-41
8633,-38
8634,-36
8635,-33
8636,-30
8637,-28
8638,-25
8639,-22
8640,-19
8641,-16
8642,-14
8643,-11
8644,-8
8645,-5
8646,-2
8647,0
8648,2
8649,5
8650,7
8651,10
8652,13
8653,15
8654,18
8655,20
8656,22
8657,24
8658,26
8659,28
8660,30
8661,32
8662,33
8663,35
8664,36
8665,37
8666,38
8667,39
8668,40
8669,40
8670,40
8671,40
8672,40
8673,40
8674,39
8675,39
8676,38
8677,37
8678,35
8679,34
8680,32
8681,30
8682,28
8683,26
8684,24
8685,21
8686,18
8687,16
8688,13
8689,10
8690,6
8691,3
8692,0
8693,-2
8694,-6
8695,-9
8696,-12
8697,-16
8698,-19
8699,-22
8700,-26
8701,-29
8702,-33
8703,-36
8704,-39
8705,-43
8706,-46
8707,-49
8708,-52
8709,-55
8710,-57
8711,-60
8712,-62
8713,-63
8714,-65
8715,-65
8716,-66
8717,-65
8718,-65
8719,-63
8720,-62
8721,-60
8722,-58
8723,-56
8724,-54
8725,-52
8726,-51
8727,-51
8728,-52
8729,-54
8730,-57
8731,-60
8732,-63
8733,-65
8734,-67
8735,-67
8736,-65
8737,-61
8738,-56
8739,-52
8740,-52
8741,-56
8742,-66
8743,-84
8744,-109
8745,-140
8746,-175
8747,-208
8748,-235
8749,-249
8750,-245
8751,-218
8752,-167
8753,-94
8754,-4
8755,98
8756,216
8757,351
8758,497
8759,640
8760,753
8761,808
8762,794
8763,716
8764,597
8765,464
8766,331
8767,203
8768,80
8769,-40
8770,-152
8771,-247
8772,-317
8773,-358
8774,-373
8775,-365
8776,-341
8777,-306
8778,-265
8779,-223
8780,-186
8781,-156
8782,-133
8783,-117
8784,-106
8785,-100
8786,-96
8787,-92
8788,-87
8789,-79
8790,-69
8791,-57
8792,-44
8793,-31
8794,-18
8795,-8
8796,0
8797,5
8798,8
8799,8
8800,6
8801,3
8802,-1
8803,-6
8804,-12
8805,-18
8806,-23
8807,-28
8808,-33
8809,-37
8810,-40
8811,-42
8812,-43
8813,-43
8814,-42
8815,-41
8816,-38
8817,-34
8818,-30
8819,-26
8820,-21
8821,-15
8822,-10
8823,-5
8824,0
8825,5
8826,10
8827,14
8828,19
8829,24
8830,28
8831,32
8832,36
8833,40
8834,44
8835,47
8836,51
8837,55
8838,59
8839,63
8840,67
8841,71
8842,75
8843,80
8844,84
8845,89
8846,93
8847,98
8848,103
8849,107
8850,112
8851,116
8852,120
8853,125
8854,129
8855,133
8856,137
8857,140
8858,143
8859,147
8860,149
8861,152
8862,154
8863,156
8864,158
8865,159
8866,160
8867,161
8868,161
8869,161
8870,160
8871,159
8872,158
8873,156
8874,154
8875,152
8876,149
8877,145
8878,142
8879,138
8880,134
8881,129
8882,124
8883,119
8884,113
8885,108
8886,102
8887,96
8888,89
8889,83
8890,76
8891,70
8892,63
8893,56
8894,50
8895,43
8896,37
8897,30
8898,24
8899,17
8900,11
8901,5
8902,0
8903,-5
8904,-10
8905,-15
8906,-20
8907,-25
8908,-29
8909,-33
8910,-37
8911,-41
8912,-44
8913,-47
8914,-49
8915,-52
8916,-54
8917,-56
8918,-57
8919,-59
8920,-60
8921,-61
8922,-61
8923,-62
8924,-62
8925,-62
8926,-62
8927,-61
8928,-61
8929,-60
8930,-60
8931,-59
8932,-58
8933,-57
8934,-55
8935,-54
8936,-53
8937,-51
8938,-50
8939,-48
8940,-47
8941,-45
8942,-43
8943,-41
8944,-40
8945,-38
8946,-36
8947,-34
8948,-32
8949,-30
8950,-28
8951,-26
8952,-24
8953,-21
8954,-19
8955,-17
8956,-15
8957,-13
8958,-10
8959,-8
8960,-6
8961,-3
8962,-1
8963,0
8964,3
8965,5
8966,7
8967,10
8968,12
8969,14
8970,17
8971,19
8972,21
8973,23
8974,25
8975,26
8976,28
8977,30
8978,31
8979,32
8980,33
8981,34
8982,35
8983,36
8984,36
8985,36
8986,37
8987,36
8988,36
8989,35
8990,34
8991,33
8992,32
8993,30
8994,29
8995,27
8996,25
8997,22
8998,20
8999,17
9000,14
9001,11
9002,8
9003,5
9004,1
9005,-1
9006,-4
9007,-8
9008,-12
9009,-16
9010,-20
9011,-24
9012,-28
9013,-32
9014,-36
9015,-40
9016,-43
9017,-47
9018,-51
9019,-54
9020,-57
9021,-59
9022,-62
9023,-63
9024,-65
9025,-65
9026,-66
9027,-65
9028,-65
9029,-64
9030,-62
9031,-61
9032,-60
9033,-59
9034,-58
9035,-58
9036,-58
9037,-60
9038,-63
9039,-67
9040,-70
9041,-74
9042,-77
9043,-78
9044,-77
9045,-74
9046,-70
9047,-65
9048,-62
9049,-62
9050,-68
9051,-80
9052,-99
9053,-124
9054,-154
9055,-185
9056,-211
9057,-228
9058,-230
9059,-213
9060,-173
9061,-110
9062,-26
9063,76
9064,190
9065,307
9066,420
9067,520
9068,597
9069,645
9070,661
9071,644
9072,593
9073,514
9074,410
9075,292
9076,167
9077,44
9078,-69
9079,-167
9080,-245
9081,-300
9082,-331
9083,-340
9084,-333
9085,-312
9086,-281
9087,-246
9088,-210
9089,-177
9090,-150
9091,-128
9092,-112
9093,-100
9094,-93
9095,-88
9096,-85
9097,-83
9098,-81
9099,-77
9100,-72
9101,-67
9102,-60
9103,-54
9104,-47
9105,-41
9106,-35
9107,-31
9108,-29
9109,-29
9110,-29
9111,-32
9112,-35
9113,-40
9114,-45
9115,-50
9116,-54
9117,-58
9118,-62
9119,-64
9120,-67
9121,-68
9122,-69
9123,-68
9124,-67
9125,-65
9126,-63
9127,-60
9128,-56
9129,-52
9130,-48
9131,-44
9132,-39
9133,-34
9134,-30
9135,-25
9136,-20
9137,-16
9138,-11
9139,-6
9140,-2
9141,2
9142,6
9143,11
9144,15
9145,20
9146,24
9147,28
9148,33
9149,37
9150,42
9151,47
9152,52
9153,56
9154,61
9155,66
9156,71
9157,76
9158,81
9159,86
9160,92
9161,97
9162,102
9163,108
9164,114
9165,120
9166,125
9167,130
9168,136
9169,140
9170,145
9171,149
9172,152
9173,155
9174,158
9175,160
9176,161
9177,161
9178,161
9179,159
9180,157
9181,153
9182,150
9183,145
9184,140
9185,134
9186,128
9187,122
9188,115
9189,108
9190,101
9191,94
9192,86
9193,79
9194,72
9195,65
9196,58
9197,51
9198,45
9199,38
9200,32
9201,25
9202,19
9203,13
9204,7
9205,1
9206,-4
9207,-10
9208,-16
9209,-21
9210,-27
9211,-32
9212,-38
9213,-43
9214,-48
9215,-52
9216,-57
9217,-61
9218,-65
9219,-68
9220,-72
9221,-75
9222,-77
9223,-80
9224,-82
9225,-84
9226,-85
9227,-87
9228,-88
9229,-89
9230,-89
9231,-90
9232,-90
9233,-90
9234,-90
9235,-89
9236,-89
9237,-88
9238,-87
9239,-86
9240,-85
9241,-84
9242,-83
9243,-82
9244,-80
9245,-78
9246,-77
9247,-75
9248,-73
9249,-71
9250,-69
9251,-67
9252,-65
9253,-63
9254,-61
9255,-58
9256,-56
9257,-54
9258,-51
9259,-49
9260,-46
9261,-44
9262,-41
9263,-39
9264,-36
9265,-33
9266,-31
9267,-28
9268,-26
9269,-23
9270,-20
9271,-18
9272,-15
9273,-13
9274,-10
9275,-8
9276,-6
9277,-3
9278,-1
9279,0
9280,2
9281,4
9282,5
9283,7
9284,9
9285,10
9286,11
9287,12
9288,13
9289,14
9290,14
9291,15
9292,15
9293,15
9294,15
9295,14
9296,13
9297,13
9298,11
9299,10
9300,9
9301,7
9302,5
9303,3
9304,0
9305,-1
9306,-4
9307,-7
9308,-10
9309,-13
9310,-16
9311,-19
9312,-22
9313,-26
9314,-29
9315,-32
9316,-36
9317,-39
9318,-42
9319,-46
9320,-49
9321,-53
9322,-56
9323,-59
9324,-62
9325,-65
9326,-68
9327,-71
9328,-73
9329,-76
9330,-78
9331,-80
9332,-81
9333,-82
9334,-83
9335,-83
9336,-82
9337,-81
9338,-81
9339,-81
9340,-82
9341,-84
9342,-87
9343,-92
9344,-97
9345,-102
9346,-107
9347,-109
9348,-107
9349,-101
9350,-90
9351,-75
9352,-58
9353,-40
9354,-23
9355,-12
9356,-10
9357,-21
9358,-44
9359,-79
9360,-124
9361,-176
9362,-230
9363,-279
9364,-315
9365,-331
9366,-322
9367,-284
9368,-218
9369,-123
9370,-5
9371,129
9372,271
9373,410
9374,534
9375,635
9376,705
9377,738
9378,731
9379,685
9380,604
9381,494
9382,364
9383,223
9384,83
9385,-49
9386,-164
9387,-256
9388,-320
9389,-356
9390,-367
9391,-356
9392,-327
9393,-286
9394,-239
9395,-191
9396,-150
9397,-116
9398,-91
9399,-74
9400,-66
9401,-66
9402,-71
9403,-79
9404,-87
9405,-92
9406,-95
9407,-96
9408,-94
9409,-89
9410,-82
9411,-73
9412,-65
9413,-58
9414,-52
9415,-48
9416,-46
9417,-45
9418,-45
9419,-47
9420,-50
9421,-52
9422,-54
9423,-56
9424,-57
9425,-58
9426,-59
9427,-58
9428,-57
9429,-56
9430,-55
9431,-53
9432,-51
9433,-48
9434,-46
9435,-43
9436,-40
9437,-36
9438,-33
9439,-30
9440,-26
9441,-23
9442,-19
9443,-16
9444,-12
9445,-8
9446,-5
9447,-1
9448,2
9449,6
9450,10
9451,14
9452,18
9453,23
9454,27
9455,31
9456,36
9457,40
9458,45
9459,50
9460,54
9461,59
9462,64
9463,69
9464,74
9465,79
9466,84
9467,89
9468,94
9469,100
9470,105
9471,111
9472,117
9473,122
9474,127
9475,133
9476,137
9477,142
9478,146
9479,150
9480,153
9481,156
9482,159
9483,160
9484,161
9485,161
9486,161
9487,159
9488,157
9489,154
9490,150
9491,146
9492,141
9493,136
9494,131
9495,125
9496,119
9497,112
9498,105
9499,99
9500,92
9501,85
9502,78
9503,71
9504,65
9505,58
9506,52
9507,45
9508,39
9509,33
9510,26
9511,20
9512,14
9513,8
9514,2
9515,-3
9516,-8
9517,-14
9518,-20
9519,-25
9520,-30
9521,-35
9522,-40
9523,-45
9524,-49
9525,-53
9526,-57
9527,-60
9528,-63
9529,-66
9530,-69
9531,-71
9532,-73
9533,-75
9534,-77
9535,-78
9536,-79
9537,-80
9538,-81
9539,-81
9540,-82
9541,-82
9542,-81
9543,-81
9544,-81
9545,-80
9546,-80
9547,-79
9548,-78
9549,-77
9550,-75
9551,-74
9552,-73
9553,-71
9554,-69
9555,-68
9556,-66
9557,-64
9558,-62
9559,-60
9560,-57
9561,-55
9562,-53
9563,-50
9564,-48
9565,-45
9566,-43
9567,-40
9568,-37
9569,-35
9570,-32
9571,-29
9572,-26
9573,-24
9574,-21
9575,-18
9576,-15
9577,-13
9578,-10
9579,-7
9580,-5
9581,-2
9582,0
9583,2
9584,4
9585,6
9586,8
9587,10
9588,12
9589,14
9590,15
9591,17
9592,18
9593,19
9594,20
9595,20
9596,21
9597,21
9598,21
9599,20
9600,20
9601,19
9602,18
9603,17
9604,16
9605,14
9606,13
9607,11
9608,9
9609,6
9610,4
9611,1
9612,0
9613,-3
9614,-6
9615,-9
9616,-12
9617,-16
9618,-19
9619,-23
9620,-26
9621,-30
9622,-34
9623,-38
9624,-42
9625,-46
9626,-50
9627,-54
9628,-57
9629,-61
9630,-65
9631,-68
9632,-71
9633,-73
9634,-74
9635,-75
9636,-76
9637,-76
9638,-75
9639,-74
9640,-72
9641,-70
9642,-67
9643,-64
9644,-61
9645,-58
9646,-56
9647,-54
9648,-53
9649,-53
9650,-55
9651,-59
9652,-64
9653,-69
9654,-75
9655,-80
9656,-83
9657,-85
9658,-86
9659,-84
9660,-83
9661,-83
9662,-86
9663,-95
9664,-111
9665,-133
9666,-162
9667,-196
9668,-232
9669,-264
9670,-287
9671,-296
9672,-285
9673,-251
9674,-191
9675,-107
9676,-1
9677,121
9678,252
9679,383
9680,503
9681,604
9682,677
9683,716
9684,717
9685,680
9686,607
9687,503
9688,377
9689,237
9690,92
9691,-46
9692,-171
9693,-275
9694,-353
9695,-402
9696,-423
9697,-419
9698,-394
9699,-352
9700,-300
9701,-244
9702,-190
9703,-143
9704,-104
9705,-76
9706,-58
9707,-51
9708,-52
9709,-60
9710,-70
9711,-79
9712,-87
9713,-92
9714,-93
9715,-89
9716,-83
9717,-73
9718,-62
9719,-52
9720,-44
9721,-38
9722,-35
9723,-34
9724,-36
9725,-40
9726,-45
9727,-50
9728,-55
9729,-60
9730,-63
9731,-67
9732,-69
9733,-71
9734,-72
9735,-72
9736,-71
9737,-69
9738,-67
9739,-64
9740,-61
9741,-57
9742,-52
9743,-48
9744,-43
9745,-38
9746,-33
9747,-28
9748,-23
9749,-18
9750,-13
9751,-8
9752,-3
9753,1
9754,5
9755,10
9756,14
9757,18
9758,23
9759,27
9760,31
9761,36
9762,40
9763,44
9764,49
9765,53
9766,58
9767,63
9768,68
9769,73
9770,79
9771,84
9772,91
9773,97
9774,104
9775,110
9776,118
9777,125
9778,132
9779,139
9780,145
9781,152
9782,158
9783,163
9784,168
9785,172
9786,175
9787,177
9788,178
9789,178
9790,177
9791,175
9792,172
9793,168
9794,163
9795,158
9796,151
9797,145
9798,138
9799,130
9800,123
9801,115
9802,108
9803,100
9804,93
9805,86
9806,79
9807,73
9808,67
9809,61
9810,56
9811,51
9812,46
9813,41
9814,36
9815,31
9816,27
9817,23
9818,18
9819,14
9820,10
9821,6
9822,2
9823,-1
9824,-5
9825,-9
9826,-12
9827,-16
9828,-19
9829,-21
9830,-24
9831,-26
9832,-28
9833,-29
9834,-31
9835,-32
9836,-32
9837,-33
9838,-33
9839,-33
9840,-33
9841,-33
9842,-32
9843,-31
9844,-30
9845,-29
9846,-28
9847,-27
9848,-26
9849,-24
9850,-23
9851,-21
9852,-19
9853,-18
9854,-16
9855,-14
9856,-12
9857,-10
9858,-7
9859,-5
9860,-3
9861,-1
9862,1
9863,3
9864,6
9865,9
9866,11
9867,14
9868,17
9869,20
9870,22
9871,25
9872,27
9873,30
9874,32
9875,35
9876,37
9877,40
9878,42
9879,45
9880,48
9881,50
9882,53
9883,56
9884,60
9885,63
9886,67
9887,71
9888,75
9889,80
9890,85
9891,89
9892,94
9893,99
9894,103
9895,107
9896,111
9897,115
9898,118
9899,121
9900,124
9901,125
9902,126
9903,126
9904,126
9905,124
9906,122
9907,120
9908,116
9909,113
9910,109
9911,105
9912,101
9913,96
9914,91
9915,86
9916,81
9917,77
9918,72
9919,68
9920,64
9921,60
9922,56
9923,52
9924,49
9925,45
9926,42
9927,38
9928,35
9929,31
9930,27
9931,23
9932,20
9933,16
9934,11
9935,7
9936,3
9937,0
9938,-4
9939,-8
9940,-12
9941,-15
9942,-19
9943,-21
9944,-24
9945,-26
9946,-27
9947,-28
9948,-29
9949,-29
9950,-30
9951,-30
9952,-31
9953,-33
9954,-35
9955,-37
9956,-41
9957,-45
9958,-50
9959,-54
9960,-57
9961,-58
9962,-57
9963,-53
9964,-47
9965,-40
9966,-32
9967,-26
9968,-26
9969,-33
9970,-48
9971,-72
9972,-105
9973,-144
9974,-186
9975,-225
9976,-255
9977,-269
9978,-262
9979,-228
9980,-169
9981,-87
9982,13
9983,129
9984,257
9985,396
9986,536
9987,655
9988,736
9989,757
9990,715
9991,626
9992,506
9993,374
9994,242
9995,111
9996,-16
9997,-135
9998,-240
9999,-319
10000,-369
10001,-390
10002,-385
10003,-358
10004,-316
10005,-262
10006,-205
10007,-151
10008,-105
10009,-69
10010,-44
10011,-30
10012,-27
10013,-34
10014,-47
10015,-61
10016,-74
10017,-84
10018,-91
10019,-93
10020,-91
10021,-84
10022,-75
10023,-65
10024,-56
10025,-49
10026,-44
10027,-41
10028,-40
10029,-41
10030,-44
10031,-47
10032,-49
10033,-52
10034,-53
10035,-55
10036,-55
10037,-55
10038,-55
10039,-54
10040,-52
10041,-51
10042,-48
10043,-46
10044,-43
10045,-39
10046,-36
10047,-32
10048,-28
10049,-24
10050,-21
10051,-17
10052,-13
10053,-9
10054,-5
10055,-1
10056,2
10057,6
10058,10
10059,14
10060,18
10061,22
10062,26
10063,30
10064,34
10065,39
10066,43
10067,47
10068,52
10069,56
10070,60
10071,64
10072,68
10073,72
10074,76
10075,80
10076,84
10077,87
10078,91
10079,95
10080,98
10081,102
10082,106
10083,110
10084,115
10085,119
10086,124
10087,129
10088,135
10089,140
10090,146
10091,151
10092,157
10093,162
10094,168
10095,172
10096,177
10097,180
10098,183
10099,185
10100,185
10101,185
10102,183
10103,180
10104,176
10105,170
10106,163
10107,155
10108,145
10109,135
10110,123
10111,111
10112,98
10113,85
10114,72
10115,59
10116,46
10117,34
10118,22
10119,11
10120,0
10121,-8
10122,-17
10123,-24
10124,-30
10125,-35
10126,-39
10127,-43
10128,-45
10129,-46
10130,-47
10131,-48
10132,-48
10133,-48
10134,-48
10135,-48
10136,-47
10137,-47
10138,-47
10139,-48
10140,-48
10141,-49
10142,-51
10143,-52
10144,-54
10145,-56
10146,-58
10147,-60
10148,-62
10149,-64
10150,-66
10151,-67
10152,-68
10153,-70
10154,-70
10155,-71
10156,-71
10157,-71
10158,-71
10159,-71
10160,-70
10161,-69
10162,-68
10163,-67
10164,-65
10165,-64
10166,-62
10167,-61
10168,-59
10169,-57
10170,-55
10171,-53
10172,-51
10173,-49
10174,-47
10175,-45
10176,-43
10177,-40
10178,-38
10179,-36
10180,-34
10181,-31
10182,-29
10183,-27
10184,-25
10185,-22
10186,-20
10187,-18
10188,-15
10189,-13
10190,-11
10191,-9
10192,-6
10193,-4
10194,-2
10195,0
10196,2
10197,5
10198,8
10199,11
10200,13
10201,16
10202,18
10203,20
10204,22
10205,24
10206,26
10207,27
10208,28
10209,28
10210,29
10211,28
10212,27
10213,25
10214,23
10215,20
10216,17
10217,13
10218,10
10219,6
10220,1
10221,-2
10222,-7
10223,-12
10224,-16
10225,-21
10226,-26
10227,-31
10228,-36
10229,-40
10230,-44
10231,-48
10232,-52
10233,-55
10234,-59
10235,-63
10236,-66
10237,-70
10238,-73
10239,-77
10240,-80
10241,-83
10242,-87
10243,-90
10244,-93
10245,-95
10246,-98
10247,-100
10248,-102
10249,-104
10250,-105
10251,-105
10252,-106
10253,-105
10254,-104
10255,-102
10256,-100
10257,-98
10258,-96
10259,-94
10260,-92
10261,-90
10262,-89
10263,-89
10264,-90
10265,-92
10266,-94
10267,-95
10268,-96
10269,-96
10270,-95
10271,-91
10272,-86
10273,-81
10274,-77
10275,-78
10276,-83
10277,-94
10278,-113
10279,-138
10280,-169
10281,-202
10282,-233
10283,-257
10284,-268
10285,-261
10286,-235
10287,-185
10288,-112
10289,-20
10290,87
10291,204
10292,321
10293,430
10294,522
10295,590
10296,629
10297,634
10298,604
10299,541
10300,450
10301,337
10302,210
10303,78
10304,-50
10305,-166
10306,-264
10307,-337
10308,-384
10309,-406
10310,-404
10311,-384
10312,-348
10313,-304
10314,-257
10315,-213
10316,-176
10317,-147
10318,-127
10319,-114
10320,-109
10321,-110
10322,-113
10323,-115
10324,-115
10325,-111
10326,-105
10327,-96
10328,-84
10329,-70
10330,-55
10331,-42
10332,-31
10333,-22
10334,-15
10335,-11
10336,-10
10337,-10
10338,-13
10339,-16
10340,-21
10341,-25
10342,-30
10343,-36
10344,-41
10345,-46
10346,-51
10347,-55
10348,-58
10349,-61
10350,-63
10351,-65
10352,-65
10353,-65
10354,-63
10355,-61
10356,-59
10357,-55
10358,-51
10359,-47
10360,-42
10361,-37
10362,-32
10363,-26
10364,-21
10365,-15
10366,-10
10367,-4
10368,1
10369,6
10370,11
10371,17
10372,22
10373,28
10374,33
10375,38
10376,44
10377,49
10378,54
10379,60
10380,65
10381,71
10382,76
10383,82
10384,87
10385,93
10386,98
10387,103
10388,108
10389,113
10390,117
10391,121
10392,125
10393,129
10394,132
10395,135
10396,138
10397,140
10398,142
10399,143
10400,144
10401,145
10402,145
10403,144
10404,143
10405,142
10406,140
10407,138
10408,135
10409,132
10410,129
10411,125
10412,121
10413,116
10414,111
10415,106
10416,100
10417,95
10418,89
10419,82
10420,76
10421,69
10422,63
10423,56
10424,49
10425,42
10426,35
10427,29
10428,22
10429,15
10430,9
10431,2
10432,-3
10433,-9
10434,-15
10435,-20
10436,-26
10437,-31
10438,-35
10439,-40
10440,-44
10441,-48
10442,-52
10443,-55
10444,-58
10445,-61
10446,-63
10447,-65
10448,-67
10449,-69
10450,-70
10451,-71
10452,-72
10453,-72
10454,-72
10455,-72
10456,-72
10457,-72
10458,-71
10459,-70
10460,-69
10461,-68
10462,-67
10463,-65
10464,-64
10465,-62
10466,-61
10467,-59
10468,-57
10469,-55
10470,-53
10471,-51
10472,-49
10473,-47
10474,-45
10475,-43
10476,-41
10477,-38
10478,-36
10479,-34
10480,-32
10481,-29
10482,-27
10483,-25
10484,-22
10485,-20
10486,-17
10487,-15
10488,-13
10489,-10
10490,-8
10491,-6
10492,-3
10493,-1
10494,0
10495,3
10496,5
10497,7
10498,9
10499,12
10500,14
10501,16
10502,18
10503,19
10504,21
10505,23
10506,24
10507,26
10508,27
10509,28
10510,29
10511,30
10512,31
10513,31
10514,31
10515,32
10516,31
10517,31
10518,31
10519,30
10520,29
10521,28
10522,27
10523,25
10524,23
10525,21
10526,19
10527,17
10528,14
10529,11
10530,8
10531,5
10532,2
10533,-1
10534,-4
10535,-8
10536,-11
10537,-15
10538,-19
10539,-23
10540,-26
10541,-30
10542,-34
10543,-38
10544,-42
10545,-46
10546,-50
10547,-54
10548,-58
10549,-61
10550,-65
10551,-69
10552,-72
10553,-76
10554,-79
10555,-82
10556,-84
10557,-86
10558,-88
10559,-89
10560,-89
10561,-89
10562,-89
10563,-88
10564,-86
10565,-84
10566,-82
10567,-80
10568,-78
10569,-77
10570,-76
10571,-76
10572,-76
10573,-78
10574,-80
10575,-82
10576,-83
10577,-82
10578,-80
10579,-76
10580,-70
10581,-64
10582,-60
10583,-60
10584,-65
10585,-79
10586,-101
10587,-131
10588,-168
10589,-208
10590,-245
10591,-273
10592,-288
10593,-282
10594,-253
10595,-199
10596,-120
10597,-19
10598,97
10599,220
10600,343
10601,454
10602,546
10603,611
10604,645
10605,645
10606,611
10607,545
10608,453
10609,341
10610,216
10611,89
10612,-35
10613,-150
10614,-248
10615,-325
10616,-378
10617,-407
10618,-414
10619,-402
10620,-374
10621,-332
10622,-284
10623,-236
10624,-190
10625,-152
10626,-121
10627,-98
10628,-83
10629,-77
10630,-78
10631,-81
10632,-85
10633,-87
10634,-87
10635,-85
10636,-79
10637,-70
10638,-58
10639,-45
10640,-33
10641,-23
10642,-15
10643,-10
10644,-7
10645,-7
10646,-9
10647,-14
10648,-19
10649,-25
10650,-30
10651,-36
10652,-41
10653,-45
10654,-49
10655,-52
10656,-54
10657,-55
10658,-55
10659,-55
10660,-53
10661,-51
10662,-48
10663,-44
10664,-40
10665,-36
10666,-30
10667,-25
10668,-20
10669,-14
10670,-9
10671,-3
10672,1
10673,7
10674,12
10675,17
10676,22
10677,27
10678,32
10679,37
10680,42
10681,46
10682,51
10683,56
10684,61
10685,66
10686,71
10687,76
10688,81
10689,86
10690,91
10691,96
10692,101
10693,106
10694,111
10695,116
10696,120
10697,125
10698,129
10699,133
10700,137
10701,140
10702,143
10703,146
10704,149
10705,151
10706,153
10707,154
10708,155
10709,156
10710,156
10711,156
10712,156
10713,155
10714,153
10715,152
10716,150
10717,147
10718,144
10719,141
10720,138
10721,134
10722,130
10723,125
10724,120
10725,115
10726,110
10727,104
10728,99
10729,93
10730,87
10731,81
10732,74
10733,68
10734,62
10735,55
10736,49
10737,42
10738,36
10739,30
10740,24
10741,18
10742,12
10743,6
10744,0
10745,-4
10746,-9
10747,-14
10748,-19
10749,-24
10750,-28
10751,-32
10752,-36
10753,-39
10754,-43
10755,-46
10756,-48
10757,-51
10758,-53
10759,-55
10760,-57
10761,-58
10762,-59
10763,-60
10764,-61
10765,-62
10766,-62
10767,-62
10768,-62
10769,-62
10770,-62
10771,-61
10772,-60
10773,-59
10774,-58
10775,-57
10776,-55
10777,-54
10778,-52
10779,-50
10780,-48
10781,-46
10782,-44
10783,-42
10784,-40
10785,-37
10786,-35
10787,-32
10788,-29
10789,-27
10790,-24
10791,-21
10792,-18
10793,-15
10794,-12
10795,-9
10796,-6
10797,-3
10798,0
10799,2
10800,5
10801,8
10802,10
10803,13
10804,16
10805,19
10806,21
10807,24
10808,27
10809,29
10810,31
10811,33
10812,35
10813,37
10814,38
10815,40
10816,41
10817,42
10818,43
10819,44
10820,44
10821,44
10822,44
10823,44
10824,44
10825,43
10826,42
10827,41
10828,39
10829,37
10830,35
10831,33
10832,31
10833,28
10834,26
10835,23
10836,19
10837,16
10838,13
10839,9
10840,5
10841,2
10842,-1
10843,-5
10844,-9
10845,-13
10846,-17
10847,-22
10848,-26
10849,-30
10850,-34
10851,-39
10852,-43
10853,-47
10854,-52
10855,-55
10856,-59
10857,-63
10858,-66
10859,-68
10860,-70
10861,-72
10862,-73
10863,-73
10864,-73
10865,-72
10866,-71
10867,-69
10868,-67
10869,-65
10870,-62
10871,-59
10872,-57
10873,-55
10874,-55
10875,-55
10876,-57
10877,-59
10878,-62
10879,-66
10880,-69
10881,-71
10882,-71
10883,-69
10884,-66
10885,-62
10886,-58
10887,-57
10888,-61
10889,-72
10890,-89
10891,-115
10892,-147
10893,-183
10894,-219
10895,-248
10896,-266
10897,-265
10898,-243
10899,-194
10900,-120
10901,-26
10902,81
10903,200
10904,326
10905,460
10906,591
10907,700
10908,770
10909,781
10910,733
10911,642
10912,522
10913,394
10914,268
10915,144
10916,22
10917,-93
10918,-199
10919,-285
10920,-347
10921,-384
10922,-399
10923,-395
10924,-376
10925,-343
10926,-301
10927,-253
10928,-205
10929,-159
10930,-117
10931,-81
10932,-51
10933,-29
10934,-16
10935,-10
10936,-9
10937,-13
10938,-19
10939,-26
10940,-32
10941,-36
10942,-36
10943,-34
10944,-29
10945,-22
10946,-14
10947,-6
10948,0
10949,3
10950,4
10951,3
10952,0
10953,-4
10954,-9
10955,-16
10956,-22
10957,-27
10958,-32
10959,-35
10960,-38
10961,-39
10962,-40
10963,-40
10964,-39
10965,-38
10966,-36
10967,-33
10968,-29
10969,-25
10970,-21
10971,-16
10972,-11
10973,-6
10974,-1
10975,3
10976,9
10977,14
10978,19
10979,24
10980,29
10981,34
10982,39
10983,44
10984,49
10985,54
10986,59
10987,64
10988,69
10989,74
10990,80
10991,85
10992,91
10993,96
10994,102
10995,107
10996,113
10997,118
10998,124
10999,129
11000,134
11001,139
11002,143
11003,148
11004,152
11005,155
11006,159
11007,162
11008,164
11009,166
11010,168
11011,169
11012,171
11013,171
11014,172
11015,172
11016,171
11017,170
11018,169
11019,167
11020,165
11021,162
11022,159
11023,155
11024,151
11025,146
11026,141
11027,135
11028,129
11029,122
11030,115
11031,106
11032,98
11033,89
11034,80
11035,71
11036,62
11037,52
11038,43
11039,33
11040,24
11041,15
11042,7
11043,0
11044,-8
11045,-15
11046,-21
11047,-27
11048,-32
11049,-36
11050,-40
11051,-44
11052,-47
11053,-50
11054,-53
11055,-55
11056,-57
11057,-59
11058,-61
11059,-62
11060,-64
11061,-66
11062,-67
11063,-69
11064,-71
11065,-72
11066,-74
11067,-75
11068,-76
11069,-77
11070,-78
11071,-79
11072,-79
11073,-79
11074,-79
11075,-79
11076,-79
11077,-78
11078,-77
11079,-76
11080,-75
11081,-74
11082,-72
11083,-70
11084,-68
11085,-67
11086,-65
11087,-63
11088,-60
11089,-58
11090,-56
11091,-54
11092,-52
11093,-49
11094,-47
11095,-44
11096,-42
11097,-40
11098,-37
11099,-34
11100,-32
11101,-29
11102,-27
11103,-24
11104,-21
11105,-19
11106,-16
11107,-13
11108,-11
11109,-8
11110,-5
11111,-3
11112,0
11113,1
11114,3
11115,6
11116,8
11117,10
11118,12
11119,14
11120,15
11121,17
11122,18
11123,19
11124,20
11125,21
11126,22
11127,22
11128,22
11129,22
11130,22
11131,22
11132,21
11133,20
11134,19
11135,18
11136,16
11137,15
11138,13
11139,10
11140,8
11141,5
11142,3
11143,0
11144,-2
11145,-5
11146,-9
11147,-12
11148,-16
11149,-19
11150,-23
11151,-27
11152,-31
11153,-35
11154,-39
11155,-43
11156,-46
11157,-50
11158,-53
11159,-57
11160,-60
11161,-63
11162,-65
11163,-67
11164,-69
11165,-71
11166,-72
11167,-72
11168,-73
11169,-74
11170,-74
11171,-75
11172,-76
11173,-77
11174,-78
11175,-80
11176,-82
11177,-85
11178,-89
11179,-94
11180,-100
11181,-107
11182,-113
11183,-119
11184,-122
11185,-124
11186,-123
11187,-119
11188,-113
11189,-106
11190,-99
11191,-96
11192,-97
11193,-104
11194,-118
11195,-137
11196,-160
11197,-184
11198,-202
11199,-210
11200,-204
11201,-178
11202,-131
11203,-60
11204,29
11205,132
11206,240
11207,348
11208,451
11209,550
11210,636
11211,695
11212,713
11213,673
11214,577
11215,440
11216,276
11217,112
11218,-33
11219,-159
11220,-251
11221,-315
11222,-355
11223,-372
11224,-374
11225,-361
11226,-332
11227,-293
11228,-249
11229,-206
11230,-170
11231,-142
11232,-123
11233,-112
11234,-105
11235,-102
11236,-100
11237,-97
11238,-92
11239,-84
11240,-74
11241,-63
11242,-51
11243,-39
11244,-28
11245,-20
11246,-14
11247,-11
11248,-10
11249,-12
11250,-14
11251,-19
11252,-23
11253,-29
11254,-34
11255,-39
11256,-44
11257,-48
11258,-52
11259,-55
11260,-57
11261,-59
11262,-59
11263,-58
11264,-57
11265,-55
11266,-51
11267,-48
11268,-43
11269,-38
11270,-33
11271,-28
11272,-23
11273,-17
11274,-12
11275,-6
11276,-1
11277,3
11278,9
11279,14
11280,19
11281,24
11282,29
11283,33
11284,38
11285,43
11286,48
11287,52
11288,57
11289,62
11290,67
11291,72
11292,77
11293,82
11294,86
11295,91
11296,96
11297,101
11298,106
11299,111
11300,117
11301,122
11302,127
11303,133
11304,138
11305,144
11306,150
11307,156
11308,162
11309,167
11310,173
11311,178
11312,182
11313,186
11314,190
11315,193
11316,195
11317,197
11318,197
11319,197
11320,195
11321,193
11322,189
11323,185
11324,180
11325,174
11326,167
11327,160
11328,153
11329,145
11330,136
11331,128
11332,119
11333,111
11334,102
11335,94
11336,85
11337,78
11338,70
11339,63
11340,56
11341,49
11342,42
11343,36
11344,29
11345,23
11346,17
11347,11
11348,5
11349,0
11350,-5
11351,-10
11352,-15
11353,-21
11354,-26
11355,-30
11356,-35
11357,-39
11358,-44
11359,-47
11360,-51
11361,-54
11362,-57
11363,-60
11364,-62
11365,-64
11366,-65
11367,-67
11368,-68
11369,-69
11370,-69
11371,-70
11372,-70
11373,-70
11374,-70
11375,-69
11376,-68
11377,-68
11378,-67
11379,-65
11380,-64
11381,-63
11382,-61
11383,-60
11384,-58
11385,-56
11386,-54
11387,-52
11388,-50
11389,-47
11390,-45
11391,-42
11392,-40
11393,-37
11394,-35
11395,-32
11396,-29
11397,-27
11398,-24
11399,-21
11400,-19
11401,-16
11402,-13
11403,-10
11404,-8
11405,-5
11406,-2
11407,0
11408,2
11409,4
11410,7
11411,9
11412,11
11413,13
11414,15
11415,17
11416,18
11417,20
11418,21
11419,22
11420,23
11421,23
11422,24
11423,24
11424,24
11425,24
11426,23
11427,23
11428,22
11429,21
11430,19
11431,18
11432,16
11433,14
11434,12
11435,10
11436,7
11437,5
11438,2
11439,0
11440,-3
11441,-6
11442,-10
11443,-13
11444,-17
11445,-21
11446,-25
11447,-29
11448,-33
11449,-37
11450,-41
11451,-46
11452,-50
11453,-54
11454,-59
11455,-63
11456,-67
11457,-71
11458,-74
11459,-77
11460,-79
11461,-81
11462,-81
11463,-82
11464,-81
11465,-80
11466,-77
11467,-74
11468,-71
11469,-67
11470,-62
11471,-57
11472,-52
11473,-46
11474,-41
11475,-37
11476,-33
11477,-30
11478,-29
11479,-29
11480,-31
11481,-35
11482,-40
11483,-47
11484,-54
11485,-61
11486,-67
11487,-72
11488,-75
11489,-76
11490,-76
11491,-77
11492,-80
11493,-87
11494,-99
11495,-118
11496,-144
11497,-176
11498,-211
11499,-246
11500,-273
11501,-289
11502,-288
11503,-264
11504,-215
11505,-139
11506,-44
11507,64
11508,180
11509,303
11510,436
11511,572
11512,696
11513,783
11514,808
11515,761
11516,652
11517,506
11518,350
11519,202
11520,67
11521,-57
11522,-171
11523,-272
11524,-351
11525,-401
11526,-422
11527,-414
11528,-384
11529,-336
11530,-277
11531,-214
11532,-153
11533,-100
11534,-59
11535,-31
11536,-16
11537,-15
11538,-26
11539,-44
11540,-65
11541,-87
11542,-105
11543,-119
11544,-126
11545,-127
11546,-123
11547,-114
11548,-102
11549,-89
11550,-77
11551,-67
11552,-59
11553,-52
11554,-48
11555,-45
11556,-43
11557,-42
11558,-41
11559,-39
11560,-36
11561,-33
11562,-30
11563,-27
11564,-24
11565,-21
11566,-18
11567,-16
11568,-14
11569,-13
11570,-12
11571,-12
11572,-12
11573,-12
11574,-12
11575,-12
11576,-12
11577,-12
11578,-12
11579,-12
11580,-11
11581,-9
11582,-7
11583,-5
11584,-2
11585,2
11586,6
11587,12
11588,18
11589,25
11590,32
11591,40
11592,47
11593,55
11594,63
11595,70
11596,78
11597,85
11598,92
11599,99
11600,105
11601,111
11602,116
11603,122
11604,126
11605,131
11606,135
11607,139
11608,143
11609,147
11610,151
11611,155
11612,159
11613,163
11614,167
11615,171
11616,175
11617,178
11618,181
11619,184
11620,186
11621,188
11622,189
11623,189
11624,189
11625,187
11626,184
11627,180
11628,175
11629,169
11630,161
11631,153
11632,144
11633,135
11634,124
11635,113
11636,102
11637,91
11638,80
11639,68
11640,57
11641,47
11642,36
11643,26
11644,17
11645,8
11646,1
11647,-6
11648,-12
11649,-18
11650,-23
11651,-28
11652,-32
11653,-36
11654,-40
11655,-44
11656,-47
11657,-50
11658,-53
11659,-55
11660,-58
11661,-60
11662,-63
11663,-66
11664,-68
11665,-71
11666,-73
11667,-75
11668,-77
11669,-79
11670,-81
11671,-82
11672,-84
11673,-84
11674,-85
11675,-85
11676,-86
11677,-85
11678,-85
11679,-84
11680,-83
11681,-82
11682,-81
11683,-79
11684,-77
11685,-75
11686,-73
11687,-70
11688,-68
11689,-66
11690,-63
11691,-61
11692,-58
11693,-55
11694,-52
11695,-50
11696,-47
11697,-44
11698,-41
11699,-38
11700,-35
11701,-32
11702,-29
11703,-26
11704,-23
11705,-20
11706,-17
11707,-14
11708,-11
11709,-8
11710,-5
11711,-2
11712,0
11713,3
11714,5
11715,8
11716,11
11717,13
11718,16
11719,18
11720,20
11721,22
11722,24
11723,26
11724,27
11725,29
11726,30
11727,31
11728,32
11729,33
11730,33
11731,33
11732,33
11733,33
11734,33
11735,32
11736,31
11737,30
11738,29
11739,27
11740,26
11741,24
11742,22
11743,19
11744,17
11745,14
11746,11
11747,9
11748,6
11749,3
11750,0
11751,-3
11752,-6
11753,-10
11754,-14
11755,-18
11756,-21
11757,-25
11758,-29
11759,-33
11760,-38
11761,-41
11762,-45
11763,-49
11764,-53
11765,-56
11766,-59
11767,-62
11768,-64
11769,-65
11770,-67
11771,-67
11772,-68
11773,-67
11774,-67
11775,-66
11776,-65
11777,-64
11778,-63
11779,-63
11780,-63
11781,-64
11782,-66
11783,-69
11784,-72
11785,-75
11786,-77
11787,-77
11788,-76
11789,-73
11790,-68
11791,-63
11792,-59
11793,-58
11794,-63
11795,-74
11796,-93
11797,-120
11798,-152
11799,-188
11800,-221
11801,-246
11802,-258
11803,-253
11804,-225
11805,-173
11806,-96
11807,1
11808,111
11809,225
11810,338
11811,445
11812,547
11813,636
11814,697
11815,718
11816,683
11817,592
11818,460
11819,301
11820,142
11821,0
11822,-123
11823,-217
11824,-287
11825,-338
11826,-368
11827,-384
11828,-386
11829,-371
11830,-343
11831,-304
11832,-258
11833,-213
11834,-172
11835,-135
11836,-104
11837,-79
11838,-61
11839,-49
11840,-43
11841,-43
11842,-46
11843,-51
11844,-56
11845,-62
11846,-66
11847,-69
11848,-69
11849,-66
11850,-62
11851,-57
11852,-52
11853,-49
11854,-46
11855,-45
11856,-46
11857,-48
11858,-51
11859,-55
11860,-59
11861,-62
11862,-65
11863,-67
11864,-68
11865,-68
11866,-68
11867,-66
11868,-64
11869,-62
11870,-58
11871,-55
11872,-51
11873,-47
11874,-43
11875,-38
11876,-34
11877,-29
11878,-25
11879,-20
11880,-15
11881,-11
11882,-6
11883,-1
11884,2
11885,7
11886,12
11887,16
11888,21
11889,25
11890,30
11891,35
11892,39
11893,44
11894,49
11895,53
11896,58
11897,63
11898,67
11899,72
11900,77
11901,82
11902,87
11903,92
11904,97
11905,103
11906,109
11907,115
11908,121
11909,127
11910,134
11911,140
11912,147
11913,153
11914,159
11915,164
11916,169
11917,174
11918,177
11919,180
11920,182
11921,183
11922,182
11923,181
11924,178
11925,174
11926,169
11927,163
11928,157
11929,149
11930,141
11931,132
11932,124
11933,114
11934,105
11935,95
11936,86
11937,77
11938,68
11939,59
11940,51
11941,43
11942,36
11943,29
11944,22
11945,16
11946,10
11947,4
11948,-1
11949,-7
11950,-12
11951,-17
11952,-22
11953,-27
11954,-32
11955,-37
11956,-41
11957,-46
11958,-50
11959,-54
11960,-58
11961,-62
11962,-65
11963,-68
11964,-71
11965,-73
11966,-75
11967,-77
11968,-78
11969,-79
11970,-80
11971,-81
11972,-81
11973,-81
11974,-81
11975,-80
11976,-80
11977,-79
11978,-78
11979,-77
11980,-75
11981,-74
11982,-72
11983,-70
11984,-68
11985,-66
11986,-64
11987,-62
11988,-60
11989,-57
11990,-55
11991,-52
11992,-50
11993,-47
11994,-44
11995,-41
11996,-38
11997,-35
11998,-32
11999,-30
12000,-26
12001,-23
12002,-20
12003,-17
12004,-14
12005,-11
12006,-8
12007,-5
12008,-2
12009,0
12010,3
12011,6
12012,9
12013,12
12014,15
12015,17
12016,20
12017,22
12018,25
12019,27
12020,29
12021,31
12022,32
12023,34
12024,35
12025,37
12026,38
12027,38
12028,39
12029,39
12030,39
12031,39
12032,39
12033,38
12034,37
12035,36
12036,35
12037,33
12038,31
12039,29
12040,27
12041,24
12042,22
12043,19
12044,16
12045,12
12046,9
12047,6
12048,2
12049,-1
12050,-4
12051,-8
12052,-12
12053,-16
12054,-20
12055,-24
12056,-28
12057,-32
12058,-36
12059,-40
12060,-44
12061,-48
12062,-52
12063,-55
12064,-58
12065,-61
12066,-64
12067,-66
12068,-68
12069,-69
12070,-69
12071,-70
12072,-69
12073,-69
12074,-68
12075,-66
12076,-65
12077,-64
12078,-63
12079,-62
12080,-61
12081,-62
12082,-63
12083,-65
12084,-69
12085,-73
12086,-77
12087,-81
12088,-84
12089,-84
12090,-83
12091,-80
12092,-74
12093,-69
12094,-66
12095,-66
12096,-74
12097,-89
12098,-107
12099,-127
12100,-147
12101,-169
12102,-201
12103,-241
12104,-277
12105,-287
12106,-250
12107,-160
12108,-23
12109,139
12110,311
12111,479
12112,628
12113,742
12114,804
12115,804
12116,744
12117,639
12118,511
