point,value
1,-122
2,-149
3,-160
4,-154
5,-142
6,-131
7,-129
8,-138
9,-151
10,-162
11,-171
12,-174
13,-175
14,-177
15,-178
16,-179
17,-179
18,-179
19,-179
20,-179
21,-179
22,-179
23,-179
24,-180
25,-180
26,-181
27,-182
28,-183
29,-185
30,-187
31,-189
32,-191
33,-193
34,-194
35,-195
36,-195
37,-194
38,-192
39,-189
40,-185
41,-182
42,-180
43,-179
44,-179
45,-181
46,-184
47,-187
48,-189
49,-188
50,-183
51,-172
52,-153
53,-126
54,-93
55,-54
56,-12
57,29
58,68
59,104
60,137
61,163
62,178
63,175
64,147
65,94
66,22
67,-52
68,-117
69,-162
70,-185
71,-194
72,-196
73,-200
74,-204
75,-206
76,-203
77,-193
78,-180
79,-167
80,-157
81,-150
82,-145
83,-142
84,-141
85,-140
86,-139
87,-137
88,-134
89,-130
90,-125
91,-120
92,-115
93,-110
94,-105
95,-102
96,-99
97,-97
98,-95
99,-94
100,-94
101,-93
102,-93
103,-92
104,-92
105,-91
106,-90
107,-88
108,-86
109,-84
110,-81
111,-77
112,-73
113,-68
114,-63
115,-58
116,-52
117,-46
118,-40
119,-33
120,-27
121,-21
122,-15
123,-10
124,-5
125,0
126,3
127,7
128,10
129,12
130,13
131,15
132,15
133,16
134,16
135,16
136,15
137,15
138,15
139,15
140,16
141,17
142,19
143,22
144,26
145,30
146,36
147,42
148,49
149,58
150,67
151,77
152,87
153,98
154,109
155,121
156,133
157,145
158,157
159,169
160,181
161,193
162,204
163,215
164,226
165,236
166,246
167,255
168,264
169,273
170,282
171,290
172,298
173,305
174,312
175,319
176,326
177,332
178,338
179,344
180,349
181,354
182,359
183,363
184,366
185,369
186,372
187,373
188,375
189,375
190,375
191,374
192,373
193,371
194,368
195,365
196,361
197,357
198,352
199,347
200,341
201,335
202,328
203,321
204,314
205,306
206,299
207,291
208,283
209,274
210,266
211,258
212,249
213,241
214,233
215,225
216,217
217,210
218,202
219,195
220,188
221,182
222,176
223,170
224,165
225,160
226,156
227,152
228,148
229,145
230,142
231,140
232,139
233,137
234,136
235,136
236,136
237,136
238,137
239,138
240,140
241,141
242,143
243,145
244,148
245,150
246,153
247,156
248,159
249,161
250,164
251,167
252,170
253,173
254,175
255,177
256,180
257,182
258,183
259,185
260,186
261,187
262,187
263,188
264,188
265,187
266,187
267,186
268,184
269,183
270,181
271,178
272,176
273,173
274,170
275,166
276,162
277,158
278,154
279,150
280,145
281,140
282,136
283,130
284,125
285,120
286,115
287,110
288,104
289,99
290,94
291,89
292,83
293,78
294,73
295,69
296,64
297,59
298,55
299,51
300,46
301,42
302,39
303,35
304,32
305,28
306,25
307,22
308,20
309,17
310,15
311,12
312,10
313,9
314,7
315,5
316,4
317,3
318,2
319,1
320,0
321,0
322,-1
323,-1
324,-2
325,-2
326,-2
327,-3
328,-3
329,-3
330,-3
331,-3
332,-3
333,-3
334,-3
335,-3
336,-3
337,-3
338,-3
339,-3
340,-4
341,-4
342,-4
343,-4
344,-4
345,-4
346,-5
347,-5
348,-6
349,-6
350,-7
351,-7
352,-8
353,-9
354,-10
355,-11
356,-11
357,-12
358,-14
359,-15
360,-16
361,-17
362,-18
363,-19
364,-21
365,-22
366,-23
367,-25
368,-26
369,-27
370,-28
371,-29
372,-30
373,-32
374,-32
375,-33
376,-34
377,-35
378,-35
379,-36
380,-36
381,-36
382,-36
383,-36
384,-36
385,-35
386,-35
387,-34
388,-33
389,-32
390,-30
391,-29
392,-28
393,-26
394,-24
395,-22
396,-21
397,-19
398,-17
399,-15
400,-13
401,-11
402,-9
403,-7
404,-5
405,-3
406,-1
407,0
408,1
409,2
410,3
411,4
412,5
413,6
414,6
415,6
416,6
417,5
418,5
419,4
420,2
421,1
422,0
423,-2
424,-4
425,-7
426,-9
427,-12
428,-14
429,-17
430,-20
431,-22
432,-25
433,-28
434,-30
435,-33
436,-35
437,-38
438,-40
439,-43
440,-46
441,-49
442,-52
443,-56
444,-60
445,-64
446,-69
447,-74
448,-79
449,-85
450,-92
451,-99
452,-106
453,-112
454,-118
455,-123
456,-126
457,-128
458,-127
459,-125
460,-122
461,-119
462,-116
463,-114
464,-115
465,-117
466,-121
467,-126
468,-131
469,-132
470,-129
471,-117
472,-96
473,-69
474,-36
475,1
476,47
477,106
478,177
479,252
480,312
481,341
482,331
483,285
484,220
485,152
486,92
487,40
488,-6
489,-52
490,-96
491,-135
492,-164
493,-183
494,-192
495,-195
496,-193
497,-190
498,-186
499,-184
500,-184
501,-187
502,-193
503,-199
504,-207
505,-215
506,-221
507,-226
508,-228
509,-229
510,-228
511,-225
512,-222
513,-218
514,-214
515,-211
516,-208
517,-207
518,-206
519,-205
520,-205
521,-206
522,-207
523,-208
524,-209
525,-211
526,-213
527,-214
528,-216
529,-218
530,-219
531,-220
532,-221
533,-222
534,-222
535,-222
536,-221
537,-220
538,-219
539,-217
540,-216
541,-214
542,-212
543,-210
544,-207
545,-205
546,-202
547,-200
548,-198
549,-195
550,-193
551,-190
552,-188
553,-185
554,-183
555,-180
556,-178
557,-175
558,-172
559,-169
560,-166
561,-163
562,-159
563,-156
564,-152
565,-147
566,-143
567,-138
568,-133
569,-127
570,-122
571,-116
572,-110
573,-104
574,-98
575,-91
576,-85
577,-78
578,-72
579,-66
580,-60
581,-55
582,-49
583,-44
584,-38
585,-33
586,-28
587,-23
588,-17
589,-12
590,-7
591,-1
592,4
593,11
594,18
595,27
596,36
597,45
598,56
599,68
600,80
601,93
602,106
603,120
604,134
605,149
606,163
607,178
608,192
609,206
610,219
611,231
612,242
613,251
614,259
615,265
616,269
617,272
618,273
619,273
620,271
621,267
622,262
623,256
624,248
625,240
626,231
627,221
628,211
629,202
630,193
631,184
632,176
633,168
634,162
635,156
636,151
637,147
638,144
639,142
640,141
641,141
642,142
643,143
644,145
645,147
646,149
647,151
648,153
649,155
650,157
651,159
652,160
653,161
654,162
655,162
656,162
657,162
658,161
659,160
660,159
661,158
662,157
663,156
664,154
665,153
666,152
667,151
668,150
669,149
670,148
671,147
672,147
673,146
674,145
675,144
676,144
677,143
678,142
679,141
680,140
681,139
682,137
683,136
684,134
685,132
686,130
687,128
688,126
689,124
690,122
691,120
692,118
693,115
694,113
695,111
696,109
697,107
698,104
699,102
700,100
701,99
702,97
703,95
704,93
705,92
706,91
707,89
708,88
709,87
710,86
711,85
712,85
713,84
714,84
715,83
716,83
717,83
718,83
719,83
720,83
721,83
722,83
723,83
724,83
725,84
726,84
727,84
728,84
729,84
730,84
731,84
732,84
733,84
734,84
735,84
736,84
737,83
738,83
739,82
740,81
741,81
742,80
743,79
744,78
745,76
746,75
747,74
748,72
749,71
750,69
751,68
752,66
753,64
754,62
755,60
756,59
757,57
758,55
759,53
760,51
761,49
762,47
763,45
764,43
765,41
766,40
767,38
768,36
769,34
770,32
771,31
772,29
773,27
774,26
775,24
776,23
777,21
778,19
779,18
780,16
781,15
782,13
783,12
784,10
785,9
786,7
787,6
788,4
789,3
790,1
791,0
792,-1
793,-2
794,-4
795,-5
796,-7
797,-8
798,-10
799,-12
800,-13
801,-15
802,-16
803,-17
804,-19
805,-20
806,-21
807,-22
808,-23
809,-24
810,-25
811,-26
812,-26
813,-27
814,-27
815,-27
816,-28
817,-28
818,-28
819,-28
820,-28
821,-28
822,-28
823,-28
824,-28
825,-28
826,-28
827,-28
828,-28
829,-27
830,-27
831,-27
832,-27
833,-28
834,-29
835,-30
836,-32
837,-34
838,-35
839,-36
840,-35
841,-31
842,-26
843,-18
844,-10
845,-2
846,5
847,11
848,14
849,13
850,7
851,-2
852,-15
853,-27
854,-40
855,-52
856,-62
857,-67
858,-68
859,-65
860,-60
861,-53
862,-46
863,-39
864,-34
865,-30
866,-29
867,-30
868,-33
869,-36
870,-39
871,-43
872,-47
873,-51
874,-54
875,-58
876,-62
877,-67
878,-72
879,-77
880,-81
881,-85
882,-90
883,-97
884,-103
885,-105
886,-99
887,-84
888,-69
889,-60
890,-66
891,-87
892,-113
893,-138
894,-150
895,-146
896,-132
897,-108
898,-76
899,-39
900,6
901,58
902,111
903,159
904,202
905,235
906,265
907,289
908,301
909,297
910,264
911,195
912,99
913,-11
914,-115
915,-186
916,-218
917,-215
918,-188
919,-159
920,-138
921,-127
922,-122
923,-117
924,-111
925,-106
926,-108
927,-115
928,-125
929,-134
930,-134
931,-130
932,-123
933,-116
934,-115
935,-116
936,-117
937,-117
938,-115
939,-112
940,-111
941,-110
942,-110
943,-111
944,-112
945,-113
946,-115
947,-116
948,-118
949,-120
950,-122
951,-123
952,-125
953,-126
954,-126
955,-127
956,-127
957,-126
958,-126
959,-125
960,-124
961,-122
962,-121
963,-119
964,-117
965,-115
966,-113
967,-111
968,-109
969,-106
970,-104
971,-102
972,-99
973,-97
974,-94
975,-91
976,-89
977,-86
978,-83
979,-79
980,-76
981,-73
982,-69
983,-65
984,-61
985,-57
986,-53
987,-48
988,-43
989,-38
990,-33
991,-27
992,-22
993,-16
994,-10
995,-4
996,2
997,8
998,15
999,22
1000,29
1001,36
1002,43
1003,50
1004,57
1005,64
1006,72
1007,79
1008,86
1009,93
1010,100
1011,107
1012,113
1013,120
1014,126
1015,132
1016,138
1017,143
1018,148
1019,153
1020,157
1021,161
1022,164
1023,167
1024,170
1025,172
1026,174
1027,175
1028,175
1029,175
1030,175
1031,174
1032,172
1033,170
1034,168
1035,165
1036,161
1037,157
1038,153
1039,148
1040,142
1041,137
1042,130
1043,124
1044,117
1045,110
1046,102
1047,94
1048,86
1049,78
1050,70
1051,61
1052,53
1053,44
1054,35
1055,26
1056,17
1057,9
1058,0
1059,-8
1060,-16
1061,-25
1062,-33
1063,-41
1064,-49
1065,-56
1066,-64
1067,-71
1068,-78
1069,-84
1070,-90
1071,-96
1072,-102
1073,-107
1074,-112
1075,-117
1076,-121
1077,-125
1078,-128
1079,-131
1080,-134
1081,-137
1082,-139
1083,-141
1084,-143
1085,-144
1086,-145
1087,-146
1088,-146
1089,-146
1090,-146
1091,-146
1092,-145
1093,-145
1094,-144
1095,-143
1096,-141
1097,-140
1098,-138
1099,-136
1100,-135
1101,-133
1102,-131
1103,-128
1104,-126
1105,-124
1106,-122
1107,-119
1108,-117
1109,-115
1110,-113
1111,-110
1112,-108
1113,-106
1114,-104
1115,-101
1116,-99
1117,-97
1118,-96
1119,-94
1120,-92
1121,-91
1122,-89
1123,-88
1124,-87
1125,-85
1126,-84
1127,-84
1128,-83
1129,-82
1130,-82
1131,-81
1132,-81
1133,-81
1134,-81
1135,-81
1136,-81
1137,-81
1138,-82
1139,-82
1140,-83
1141,-83
1142,-84
1143,-84
1144,-85
1145,-86
1146,-87
1147,-88
1148,-88
1149,-89
1150,-90
1151,-91
1152,-92
1153,-93
1154,-93
1155,-94
1156,-95
1157,-95
1158,-96
1159,-96
1160,-96
1161,-97
1162,-97
1163,-97
1164,-97
1165,-97
1166,-96
1167,-96
1168,-96
1169,-95
1170,-95
1171,-94
1172,-93
1173,-92
1174,-92
1175,-90
1176,-89
1177,-88
1178,-87
1179,-86
1180,-84
1181,-83
1182,-82
1183,-80
1184,-79
1185,-77
1186,-76
1187,-74
1188,-73
1189,-71
1190,-70
1191,-68
1192,-67
1193,-66
1194,-64
1195,-63
1196,-62
1197,-61
1198,-60
1199,-59
1200,-58
1201,-57
1202,-56
1203,-55
1204,-54
1205,-54
1206,-53
1207,-53
1208,-52
1209,-52
1210,-52
1211,-51
1212,-51
1213,-51
1214,-51
1215,-51
1216,-51
1217,-50
1218,-50
1219,-50
1220,-50
1221,-50
1222,-50
1223,-50
1224,-50
1225,-49
1226,-49
1227,-49
1228,-48
1229,-48
1230,-47
1231,-46
1232,-46
1233,-45
1234,-44
1235,-43
1236,-41
1237,-40
1238,-38
1239,-37
1240,-35
1241,-33
1242,-31
1243,-29
1244,-27
1245,-25
1246,-23
1247,-20
1248,-18
1249,-15
1250,-12
1251,-10
1252,-7
1253,-4
1254,-1
1255,1
1256,3
1257,6
1258,9
1259,12
1260,14
1261,17
1262,19
1263,22
1264,24
1265,26
1266,28
1267,30
1268,32
1269,33
1270,35
1271,36
1272,37
1273,37
1274,38
1275,38
1276,38
1277,38
1278,37
1279,37
1280,36
1281,35
1282,33
1283,32
1284,30
1285,29
1286,27
1287,25
1288,23
1289,21
1290,19
1291,17
1292,15
1293,13
1294,10
1295,8
1296,6
1297,3
1298,0
1299,-2
1300,-5
1301,-9
1302,-13
1303,-18
1304,-23
1305,-29
1306,-35
1307,-41
1308,-46
1309,-52
1310,-56
1311,-60
1312,-63
1313,-65
1314,-67
1315,-68
1316,-71
1317,-75
1318,-81
1319,-89
1320,-99
1321,-107
1322,-111
1323,-113
1324,-113
1325,-116
1326,-121
1327,-123
1328,-113
1329,-83
1330,-31
1331,38
1332,118
1333,193
1334,250
1335,279
1336,274
1337,237
1338,173
1339,91
1340,2
1341,-83
1342,-153
1343,-199
1344,-214
1345,-201
1346,-166
1347,-122
1348,-85
1349,-61
1350,-54
1351,-61
1352,-72
1353,-80
1354,-82
1355,-76
1356,-69
1357,-64
1358,-61
1359,-61
1360,-61
1361,-60
1362,-57
1363,-54
1364,-50
1365,-46
1366,-43
1367,-40
1368,-38
1369,-36
1370,-35
1371,-34
1372,-34
1373,-34
1374,-34
1375,-34
1376,-34
1377,-34
1378,-33
1379,-33
1380,-33
1381,-32
1382,-31
1383,-30
1384,-29
1385,-28
1386,-27
1387,-25
1388,-23
1389,-21
1390,-19
1391,-17
1392,-15
1393,-13
1394,-10
1395,-8
1396,-5
1397,-3
1398,0
1399,2
1400,4
1401,7
1402,10
1403,14
1404,17
1405,20
1406,24
1407,28
1408,32
1409,36
1410,40
1411,45
1412,50
1413,55
1414,60
1415,65
1416,71
1417,77
1418,83
1419,89
1420,95
1421,101
1422,108
1423,115
1424,122
1425,129
1426,136
1427,143
1428,151
1429,158
1430,165
1431,173
1432,180
1433,188
1434,195
1435,202
1436,210
1437,217
1438,223
1439,230
1440,237
1441,243
1442,249
1443,255
1444,260
1445,266
1446,270
1447,275
1448,279
1449,283
1450,286
1451,289
1452,291
1453,293
1454,294
1455,295
1456,296
1457,296
1458,295
1459,294
1460,293
1461,290
1462,288
1463,285
1464,282
1465,278
1466,273
1467,269
1468,263
1469,258
1470,252
1471,246
1472,239
1473,233
1474,226
1475,218
1476,211
1477,203
1478,196
1479,188
1480,180
1481,172
1482,164
1483,156
1484,148
1485,140
1486,133
1487,125
1488,118
1489,110
1490,103
1491,96
1492,90
1493,83
1494,77
1495,72
1496,66
1497,61
1498,56
1499,51
1500,47
1501,43
1502,40
1503,36
1504,33
1505,31
1506,28
1507,26
1508,25
1509,23
1510,22
1511,21
1512,20
1513,20
1514,19
1515,19
1516,19
1517,19
1518,20
1519,20
1520,21
1521,21
1522,22
1523,23
1524,24
1525,24
1526,25
1527,26
1528,27
1529,28
1530,29
1531,29
1532,30
1533,31
1534,31
1535,32
1536,32
1537,32
1538,32
1539,33
1540,33
1541,33
1542,32
1543,32
1544,32
1545,32
1546,31
1547,31
1548,30
1549,29
1550,29
1551,28
1552,27
1553,26
1554,25
1555,24
1556,24
1557,23
1558,22
1559,21
1560,20
1561,19
1562,18
1563,17
1564,16
1565,15
1566,15
1567,14
1568,13
1569,12
1570,11
1571,11
1572,10
1573,9
1574,9
1575,8
1576,8
1577,7
1578,6
1579,6
1580,5
1581,5
1582,4
1583,3
1584,3
1585,2
1586,1
1587,0
1588,0
1589,0
1590,-1
1591,-2
1592,-3
1593,-4
1594,-5
1595,-6
1596,-7
1597,-9
1598,-10
1599,-11
1600,-13
1601,-14
1602,-16
1603,-18
1604,-19
1605,-21
1606,-23
1607,-25
1608,-27
1609,-29
1610,-31
1611,-33
1612,-35
1613,-37
1614,-39
1615,-41
1616,-43
1617,-45
1618,-46
1619,-48
1620,-50
1621,-52
1622,-53
1623,-55
1624,-56
1625,-58
1626,-59
1627,-60
1628,-61
1629,-62
1630,-63
1631,-64
1632,-64
1633,-65
1634,-65
1635,-65
1636,-65
1637,-64
1638,-64
1639,-63
1640,-63
1641,-62
1642,-61
1643,-60
1644,-58
1645,-57
1646,-55
1647,-54
1648,-52
1649,-50
1650,-48
1651,-46
1652,-44
1653,-41
1654,-39
1655,-37
1656,-34
1657,-32
1658,-30
1659,-27
1660,-25
1661,-23
1662,-21
1663,-19
1664,-17
1665,-15
1666,-14
1667,-12
1668,-11
1669,-10
1670,-9
1671,-8
1672,-7
1673,-7
1674,-6
1675,-6
1676,-7
1677,-7
1678,-8
1679,-9
1680,-10
1681,-11
1682,-13
1683,-14
1684,-16
1685,-19
1686,-21
1687,-24
1688,-26
1689,-29
1690,-32
1691,-35
1692,-38
1693,-42
1694,-45
1695,-48
1696,-51
1697,-54
1698,-57
1699,-59
1700,-62
1701,-64
1702,-66
1703,-68
1704,-70
1705,-72
1706,-73
1707,-75
1708,-77
1709,-79
1710,-81
1711,-83
1712,-85
1713,-88
1714,-91
1715,-95
1716,-98
1717,-101
1718,-104
1719,-106
1720,-106
1721,-105
1722,-103
1723,-99
1724,-95
1725,-92
1726,-90
1727,-90
1728,-94
1729,-101
1730,-111
1731,-123
1732,-134
1733,-142
1734,-145
1735,-139
1736,-122
1737,-94
1738,-54
1739,-6
1740,45
1741,100
1742,157
1743,216
1744,273
1745,316
1746,337
1747,325
1748,280
1749,215
1750,139
1751,65
1752,0
1753,-55
1754,-104
1755,-144
1756,-175
1757,-193
1758,-196
1759,-182
1760,-159
1761,-134
1762,-112
1763,-102
1764,-101
1765,-105
1766,-111
1767,-114
1768,-116
1769,-120
1770,-122
1771,-126
1772,-129
1773,-129
1774,-128
1775,-126
1776,-123
1777,-120
1778,-117
1779,-115
1780,-114
1781,-113
1782,-113
1783,-114
1784,-115
1785,-116
1786,-118
1787,-120
1788,-121
1789,-123
1790,-125
1791,-126
1792,-127
1793,-128
1794,-129
1795,-129
1796,-129
1797,-129
1798,-128
1799,-128
1800,-126
1801,-125
1802,-123
1803,-121
1804,-118
1805,-116
1806,-113
1807,-110
1808,-108
1809,-105
1810,-101
1811,-98
1812,-95
1813,-92
1814,-88
1815,-84
1816,-81
1817,-77
1818,-73
1819,-69
1820,-65
1821,-60
1822,-56
1823,-51
1824,-46
1825,-41
1826,-36
1827,-30
1828,-25
1829,-19
1830,-14
1831,-8
1832,-2
1833,3
1834,9
1835,16
1836,22
1837,28
1838,34
1839,41
1840,47
1841,53
1842,60
1843,66
1844,72
1845,78
1846,84
1847,90
1848,95
1849,101
1850,106
1851,111
1852,116
1853,121
1854,125
1855,129
1856,133
1857,137
1858,140
1859,143
1860,145
1861,147
1862,149
1863,151
1864,152
1865,152
1866,153
1867,153
1868,152
1869,152
1870,151
1871,149
1872,148
1873,146
1874,143
1875,141
1876,138
1877,134
1878,131
1879,127
1880,123
1881,119
1882,115
1883,110
1884,106
1885,101
1886,96
1887,91
1888,86
1889,81
1890,76
1891,71
1892,66
1893,62
1894,57
1895,52
1896,47
1897,42
1898,38
1899,34
1900,29
1901,25
1902,21
1903,17
1904,14
1905,10
1906,7
1907,4
1908,1
1909,-1
1910,-4
1911,-6
1912,-8
1913,-11
1914,-13
1915,-14
1916,-16
1917,-18
1918,-19
1919,-20
1920,-21
1921,-23
1922,-24
1923,-24
1924,-25
1925,-26
1926,-27
1927,-27
1928,-28
1929,-29
1930,-29
1931,-30
1932,-30
1933,-31
1934,-31
1935,-32
1936,-33
1937,-33
1938,-34
1939,-35
1940,-35
1941,-36
1942,-37
1943,-38
1944,-39
1945,-40
1946,-41
1947,-42
1948,-43
1949,-44
1950,-45
1951,-46
1952,-48
1953,-49
1954,-50
1955,-52
1956,-53
1957,-54
1958,-56
1959,-57
1960,-58
1961,-60
1962,-61
1963,-62
1964,-64
1965,-65
1966,-66
1967,-68
1968,-69
1969,-70
1970,-71
1971,-72
1972,-73
1973,-74
1974,-75
1975,-76
1976,-77
1977,-78
1978,-79
1979,-80
1980,-81
1981,-81
1982,-82
1983,-82
1984,-83
1985,-84
1986,-84
1987,-85
1988,-85
1989,-85
1990,-86
1991,-86
1992,-86
1993,-87
1994,-87
1995,-87
1996,-88
1997,-88
1998,-88
1999,-88
2000,-89
2001,-89
2002,-89
2003,-89
2004,-89
2005,-90
2006,-90
2007,-90
2008,-90
2009,-90
2010,-90
2011,-91
2012,-91
2013,-91
2014,-91
2015,-91
2016,-92
2017,-92
2018,-92
2019,-92
2020,-92
2021,-92
2022,-93
2023,-93
2024,-93
2025,-93
2026,-93
2027,-93
2028,-93
2029,-93
2030,-93
2031,-93
2032,-93
2033,-93
2034,-93
2035,-93
2036,-92
2037,-92
2038,-92
2039,-92
2040,-91
2041,-91
2042,-91
2043,-90
2044,-90
2045,-89
2046,-88
2047,-88
2048,-87
2049,-86
2050,-85
2051,-84
2052,-84
2053,-83
2054,-81
2055,-80
2056,-79
2057,-78
2058,-77
2059,-75
2060,-74
2061,-72
2062,-71
2063,-69
2064,-67
2065,-65
2066,-64
2067,-62
2068,-60
2069,-58
2070,-56
2071,-54
2072,-52
2073,-49
2074,-47
2075,-45
2076,-43
2077,-41
2078,-38
2079,-36
2080,-34
2081,-32
2082,-30
2083,-27
2084,-25
2085,-23
2086,-21
2087,-19
2088,-18
2089,-16
2090,-14
2091,-13
2092,-11
2093,-10
2094,-8
2095,-7
2096,-6
2097,-5
2098,-4
2099,-4
2100,-3
2101,-3
2102,-2
2103,-2
2104,-2
2105,-2
2106,-2
2107,-3
2108,-3
2109,-3
2110,-4
2111,-4
2112,-4
2113,-5
2114,-5
2115,-5
2116,-5
2117,-5
2118,-4
2119,-4
2120,-3
2121,-2
2122,-1
2123,0
2124,0
2125,1
2126,2
2127,2
2128,3
2129,3
2130,2
2131,2
2132,0
2133,0
2134,-2
2135,-5
2136,-8
2137,-11
2138,-13
2139,-14
2140,-15
2141,-13
2142,-10
2143,-6
2144,0
2145,4
2146,8
2147,10
2148,9
2149,5
2150,-1
2151,-9
2152,-16
2153,-21
2154,-20
2155,-9
2156,12
2157,43
2158,81
2159,125
2160,175
2161,235
2162,306
2163,381
2164,448
2165,486
2166,481
2167,432
2168,351
2169,260
2170,175
2171,105
2172,51
2173,7
2174,-26
2175,-51
2176,-65
2177,-66
2178,-56
2179,-39
2180,-19
2181,0
2182,16
2183,28
2184,35
2185,36
2186,34
2187,29
2188,22
2189,16
2190,12
2191,8
2192,7
2193,7
2194,9
2195,11
2196,13
2197,14
2198,15
2199,15
2200,14
2201,13
2202,11
2203,8
2204,6
2205,3
2206,0
2207,-1
2208,-3
2209,-5
2210,-7
2211,-8
2212,-9
2213,-10
2214,-10
2215,-10
2216,-10
2217,-9
2218,-8
2219,-6
2220,-5
2221,-3
2222,-1
2223,1
2224,3
2225,6
2226,8
2227,11
2228,14
2229,17
2230,19
2231,22
2232,25
2233,28
2234,32
2235,35
2236,38
2237,41
2238,45
2239,48
2240,52
2241,56
2242,59
2243,63
2244,67
2245,71
2246,75
2247,80
2248,84
2249,88
2250,93
2251,97
2252,102
2253,106
2254,111
2255,116
2256,121
2257,125
2258,130
2259,135
2260,140
2261,145
2262,150
2263,155
2264,160
2265,165
2266,170
2267,175
2268,179
2269,184
2270,188
2271,193
2272,197
2273,201
2274,205
2275,209
2276,213
2277,216
2278,219
2279,222
2280,224
2281,226
2282,228
2283,230
2284,231
2285,232
2286,232
2287,233
2288,232
2289,232
2290,231
2291,229
2292,228
2293,225
2294,223
2295,220
2296,217
2297,214
2298,210
2299,206
2300,202
2301,197
2302,192
2303,187
2304,181
2305,175
2306,169
2307,162
2308,155
2309,148
2310,140
2311,132
2312,124
2313,116
2314,107
2315,99
2316,91
2317,82
2318,74
2319,66
2320,58
2321,50
2322,43
2323,36
2324,29
2325,23
2326,17
2327,12
2328,7
2329,3
2330,0
2331,-4
2332,-7
2333,-10
2334,-13
2335,-16
2336,-18
2337,-20
2338,-22
2339,-24
2340,-26
2341,-28
2342,-29
2343,-31
2344,-33
2345,-35
2346,-37
2347,-38
2348,-39
2349,-41
2350,-42
2351,-43
2352,-44
2353,-45
2354,-46
2355,-46
2356,-47
2357,-47
2358,-47
2359,-47
2360,-47
2361,-47
2362,-47
2363,-46
2364,-46
2365,-46
2366,-45
2367,-45
2368,-44
2369,-44
2370,-43
2371,-43
2372,-42
2373,-42
2374,-41
2375,-40
2376,-40
2377,-39
2378,-38
2379,-37
2380,-36
2381,-36
2382,-35
2383,-34
2384,-33
2385,-32
2386,-31
2387,-30
2388,-29
2389,-27
2390,-26
2391,-25
2392,-24
2393,-23
2394,-22
2395,-21
2396,-20
2397,-18
2398,-17
2399,-16
2400,-15
2401,-14
2402,-13
2403,-12
2404,-11
2405,-10
2406,-9
2407,-8
2408,-8
2409,-7
2410,-6
2411,-5
2412,-5
2413,-4
2414,-4
2415,-3
2416,-3
2417,-2
2418,-2
2419,-2
2420,-2
2421,-1
2422,-1
2423,-1
2424,-1
2425,-1
2426,-1
2427,-1
2428,-1
2429,-1
2430,-1
2431,-1
2432,-2
2433,-2
2434,-2
2435,-2
2436,-2
2437,-3
2438,-3
2439,-3
2440,-4
2441,-4
2442,-5
2443,-5
2444,-5
2445,-6
2446,-6
2447,-7
2448,-7
2449,-7
2450,-8
2451,-8
2452,-9
2453,-9
2454,-10
2455,-10
2456,-11
2457,-11
2458,-11
2459,-12
2460,-12
2461,-12
2462,-13
2463,-13
2464,-13
2465,-14
2466,-14
2467,-14
2468,-14
2469,-14
2470,-14
2471,-14
2472,-14
2473,-14
2474,-14
2475,-14
2476,-13
2477,-13
2478,-12
2479,-12
2480,-11
2481,-10
2482,-10
2483,-9
2484,-8
2485,-6
2486,-5
2487,-4
2488,-2
2489,-1
2490,0
2491,2
2492,3
2493,5
2494,7
2495,10
2496,12
2497,14
2498,16
2499,19
2500,21
2501,24
2502,26
2503,29
2504,31
2505,34
2506,37
2507,39
2508,41
2509,44
2510,46
2511,49
2512,51
2513,53
2514,55
2515,57
2516,59
2517,60
2518,62
2519,63
2520,64
2521,65
2522,66
2523,66
2524,67
2525,67
2526,67
2527,66
2528,66
2529,65
2530,64
2531,63
2532,62
2533,60
2534,59
2535,58
2536,56
2537,55
2538,54
2539,52
2540,51
2541,50
2542,49
2543,48
2544,46
2545,45
2546,43
2547,41
2548,39
2549,36
2550,32
2551,28
2552,23
2553,18
2554,11
2555,4
2556,-3
2557,-10
2558,-18
2559,-25
2560,-32
2561,-38
2562,-43
2563,-47
2564,-51
2565,-55
2566,-59
2567,-63
2568,-69
2569,-75
2570,-82
2571,-87
2572,-92
2573,-92
2574,-89
2575,-80
2576,-63
2577,-39
2578,-7
2579,29
2580,68
2581,106
2582,143
2583,177
2584,213
2585,248
2586,273
2587,279
2588,256
2589,202
2590,125
2591,43
2592,-30
2593,-84
2594,-118
2595,-139
2596,-152
2597,-160
2598,-166
2599,-167
2600,-164
2601,-158
2602,-150
2603,-144
2604,-140
2605,-140
2606,-142
2607,-146
2608,-151
2609,-155
2610,-157
2611,-157
2612,-156
2613,-153
2614,-149
2615,-144
2616,-139
2617,-134
2618,-129
2619,-126
2620,-123
2621,-121
2622,-120
2623,-119
2624,-119
2625,-119
2626,-120
2627,-120
2628,-121
2629,-122
2630,-122
2631,-123
2632,-123
2633,-122
2634,-122
2635,-121
2636,-119
2637,-117
2638,-115
2639,-113
2640,-110
2641,-107
2642,-104
2643,-100
2644,-96
2645,-93
2646,-89
2647,-85
2648,-81
2649,-77
2650,-73
2651,-69
2652,-65
2653,-61
2654,-56
2655,-52
2656,-48
2657,-44
2658,-39
2659,-35
2660,-30
2661,-26
2662,-21
2663,-16
2664,-11
2665,-6
2666,-1
2667,3
2668,8
2669,14
2670,20
2671,25
2672,31
2673,37
2674,43
2675,49
2676,55
2677,62
2678,68
2679,75
2680,81
2681,87
2682,94
2683,100
2684,106
2685,113
2686,119
2687,124
2688,130
2689,135
2690,140
2691,145
2692,150
2693,154
2694,159
2695,163
2696,167
2697,171
2698,175
2699,179
2700,182
2701,186
2702,190
2703,194
2704,198
2705,202
2706,206
2707,209
2708,212
2709,215
2710,217
2711,218
2712,219
2713,218
2714,217
2715,215
2716,211
2717,207
2718,201
2719,194
2720,186
2721,176
2722,166
2723,155
2724,143
2725,131
2726,118
2727,105
2728,91
2729,78
2730,65
2731,52
2732,39
2733,27
2734,15
2735,4
2736,-6
2737,-16
2738,-26
2739,-35
2740,-43
2741,-51
2742,-59
2743,-66
2744,-73
2745,-79
2746,-85
2747,-91
2748,-96
2749,-101
2750,-106
2751,-111
2752,-115
2753,-119
2754,-122
2755,-125
2756,-128
2757,-130
2758,-132
2759,-133
2760,-134
2761,-134
2762,-134
2763,-134
2764,-133
2765,-132
2766,-131
2767,-129
2768,-128
2769,-126
2770,-123
2771,-121
2772,-118
2773,-116
2774,-113
2775,-110
2776,-107
2777,-104
2778,-102
2779,-99
2780,-96
2781,-94
2782,-91
2783,-89
2784,-87
2785,-85
2786,-83
2787,-81
2788,-79
2789,-78
2790,-77
2791,-75
2792,-75
2793,-74
2794,-73
2795,-73
2796,-73
2797,-73
2798,-73
2799,-73
2800,-73
2801,-74
2802,-75
2803,-75
2804,-76
2805,-77
2806,-78
2807,-79
2808,-80
2809,-81
2810,-82
2811,-83
2812,-84
2813,-85
2814,-86
2815,-87
2816,-88
2817,-89
2818,-90
2819,-90
2820,-91
2821,-91
2822,-92
2823,-92
2824,-92
2825,-92
2826,-92
2827,-92
2828,-92
2829,-92
2830,-91
2831,-91
2832,-90
2833,-89
2834,-88
2835,-88
2836,-87
2837,-86
2838,-84
2839,-83
2840,-82
2841,-81
2842,-80
2843,-78
2844,-77
2845,-76
2846,-74
2847,-73
2848,-72
2849,-71
2850,-69
2851,-68
2852,-67
2853,-66
2854,-65
2855,-64
2856,-63
2857,-63
2858,-62
2859,-62
2860,-61
2861,-61
2862,-61
2863,-60
2864,-60
2865,-60
2866,-61
2867,-61
2868,-61
2869,-62
2870,-62
2871,-63
2872,-64
2873,-65
2874,-66
2875,-67
2876,-68
2877,-69
2878,-70
2879,-71
2880,-72
2881,-73
2882,-75
2883,-76
2884,-77
2885,-78
2886,-80
2887,-81
2888,-82
2889,-83
2890,-84
2891,-85
2892,-86
2893,-87
2894,-87
2895,-88
2896,-89
2897,-89
2898,-89
2899,-89
2900,-89
2901,-89
2902,-89
2903,-89
2904,-88
2905,-88
2906,-87
2907,-86
2908,-85
2909,-84
2910,-83
2911,-82
2912,-81
2913,-80
2914,-78
2915,-77
2916,-75
2917,-74
2918,-72
2919,-70
2920,-69
2921,-67
2922,-66
2923,-65
2924,-63
2925,-62
2926,-61
2927,-60
2928,-59
2929,-58
2930,-57
2931,-57
2932,-56
2933,-56
2934,-56
2935,-56
2936,-56
2937,-56
2938,-57
2939,-57
2940,-58
2941,-59
2942,-60
2943,-61
2944,-62
2945,-63
2946,-65
2947,-66
2948,-68
2949,-70
2950,-71
2951,-73
2952,-75
2953,-76
2954,-77
2955,-79
2956,-80
2957,-81
2958,-81
2959,-82
2960,-82
2961,-81
2962,-81
2963,-80
2964,-79
2965,-78
2966,-76
2967,-74
2968,-73
2969,-71
2970,-69
2971,-67
2972,-66
2973,-64
2974,-63
2975,-62
2976,-60
2977,-58
2978,-55
2979,-52
2980,-47
2981,-41
2982,-34
2983,-26
2984,-19
2985,-13
2986,-9
2987,-7
2988,-8
2989,-12
2990,-18
2991,-25
2992,-31
2993,-32
2994,-28
2995,-16
2996,5
2997,37
2998,79
2999,128
3000,182
3001,237
3002,288
3003,331
3004,362
3005,377
3006,375
3007,356
3008,320
3009,271
3010,212
3011,149
3012,86
3013,29
3014,-19
3015,-55
3016,-79
3017,-91
3018,-91
3019,-84
3020,-71
3021,-56
3022,-41
3023,-29
3024,-21
3025,-17
3026,-17
3027,-20
3028,-24
3029,-29
3030,-33
3031,-36
3032,-37
3033,-37
3034,-35
3035,-33
3036,-30
3037,-27
3038,-25
3039,-24
3040,-23
3041,-23
3042,-24
3043,-25
3044,-26
3045,-27
3046,-29
3047,-31
3048,-32
3049,-33
3050,-34
3051,-34
3052,-34
3053,-34
3054,-33
3055,-32
3056,-30
3057,-29
3058,-26
3059,-24
3060,-21
3061,-18
3062,-15
3063,-12
3064,-8
3065,-5
3066,-1
3067,1
3068,5
3069,8
3070,12
3071,15
3072,19
3073,22
3074,26
3075,30
3076,33
3077,37
3078,41
3079,44
3080,48
3081,52
3082,56
3083,60
3084,64
3085,68
3086,72
3087,76
3088,81
3089,85
3090,90
3091,94
3092,99
3093,104
3094,109
3095,114
3096,119
3097,124
3098,129
3099,135
3100,140
3101,146
3102,151
3103,157
3104,163
3105,168
3106,174
3107,179
3108,185
3109,190
3110,195
3111,200
3112,204
3113,209
3114,213
3115,217
3116,221
3117,225
3118,228
3119,231
3120,234
3121,237
3122,240
3123,243
3124,246
3125,248
3126,251
3127,254
3128,256
3129,258
3130,260
3131,262
3132,263
3133,264
3134,264
3135,264
3136,263
3137,261
3138,259
3139,255
3140,251
3141,246
3142,240
3143,233
3144,225
3145,217
3146,208
3147,199
3148,189
3149,179
3150,168
3151,158
3152,147
3153,136
3154,126
3155,115
3156,105
3157,96
3158,87
3159,78
3160,69
3161,61
3162,54
3163,47
3164,40
3165,33
3166,27
3167,21
3168,15
3169,9
3170,4
3171,0
3172,-5
3173,-9
3174,-13
3175,-17
3176,-21
3177,-25
3178,-28
3179,-31
3180,-33
3181,-36
3182,-38
3183,-39
3184,-40
3185,-41
3186,-42
3187,-42
3188,-42
3189,-42
3190,-42
3191,-41
3192,-41
3193,-40
3194,-39
3195,-38
3196,-36
3197,-35
3198,-34
3199,-32
3200,-31
3201,-30
3202,-28
3203,-27
3204,-25
3205,-24
3206,-23
3207,-21
3208,-20
3209,-19
3210,-18
3211,-17
3212,-16
3213,-15
3214,-15
3215,-14
3216,-14
3217,-13
3218,-13
3219,-13
3220,-13
3221,-13
3222,-13
3223,-13
3224,-13
3225,-13
3226,-13
3227,-14
3228,-14
3229,-15
3230,-15
3231,-16
3232,-16
3233,-17
3234,-18
3235,-18
3236,-19
3237,-20
3238,-20
3239,-21
3240,-22
3241,-22
3242,-23
3243,-24
3244,-24
3245,-25
3246,-26
3247,-26
3248,-27
3249,-28
3250,-28
3251,-29
3252,-29
3253,-30
3254,-30
3255,-31
3256,-31
3257,-32
3258,-32
3259,-33
3260,-33
3261,-34
3262,-34
3263,-35
3264,-35
3265,-36
3266,-36
3267,-37
3268,-37
3269,-37
3270,-38
3271,-38
3272,-39
3273,-39
3274,-40
3275,-40
3276,-41
3277,-41
3278,-42
3279,-42
3280,-43
3281,-43
3282,-44
3283,-44
3284,-45
3285,-46
3286,-46
3287,-47
3288,-47
3289,-48
3290,-49
3291,-49
3292,-50
3293,-51
3294,-51
3295,-52
3296,-53
3297,-54
3298,-54
3299,-55
3300,-56
3301,-56
3302,-57
3303,-58
3304,-59
3305,-59
3306,-60
3307,-61
3308,-61
3309,-62
3310,-63
3311,-63
3312,-64
3313,-64
3314,-65
3315,-65
3316,-66
3317,-66
3318,-66
3319,-67
3320,-67
3321,-67
3322,-67
3323,-67
3324,-67
3325,-67
3326,-66
3327,-66
3328,-65
3329,-65
3330,-64
3331,-63
3332,-62
3333,-61
3334,-60
3335,-59
3336,-58
3337,-57
3338,-56
3339,-55
3340,-54
3341,-52
3342,-51
3343,-50
3344,-49
3345,-48
3346,-47
3347,-46
3348,-45
3349,-44
3350,-44
3351,-43
3352,-43
3353,-44
3354,-44
3355,-45
3356,-47
3357,-49
3358,-50
3359,-51
3360,-51
3361,-49
3362,-47
3363,-44
3364,-41
3365,-37
3366,-34
3367,-29
3368,-23
3369,-18
3370,-18
3371,-27
3372,-47
3373,-68
3374,-86
3375,-90
3376,-78
3377,-60
3378,-43
3379,-35
3380,-37
3381,-43
3382,-50
3383,-54
3384,-54
3385,-55
3386,-56
3387,-58
3388,-61
3389,-64
3390,-67
3391,-70
3392,-73
3393,-76
3394,-78
3395,-79
3396,-79
3397,-77
3398,-75
3399,-71
3400,-68
3401,-66
3402,-67
3403,-69
3404,-74
3405,-82
3406,-90
3407,-98
3408,-104
3409,-103
3410,-96
3411,-80
3412,-53
3413,-17
3414,29
3415,83
3416,138
3417,191
3418,236
3419,275
3420,311
3421,346
3422,375
3423,389
3424,375
3425,327
3426,243
3427,135
3428,23
3429,-74
3430,-139
3431,-166
3432,-161
3433,-132
3434,-96
3435,-67
3436,-50
3437,-47
3438,-55
3439,-65
3440,-76
3441,-84
3442,-88
3443,-90
3444,-92
3445,-94
3446,-96
3447,-97
3448,-96
3449,-92
3450,-88
3451,-83
3452,-78
3453,-73
3454,-70
3455,-67
3456,-64
3457,-63
3458,-62
3459,-62
3460,-63
3461,-64
3462,-65
3463,-66
3464,-68
3465,-70
3466,-71
3467,-72
3468,-74
3469,-74
3470,-75
3471,-75
3472,-74
3473,-74
3474,-73
3475,-71
3476,-69
3477,-67
3478,-65
3479,-62
3480,-59
3481,-56
3482,-53
3483,-50
3484,-47
3485,-43
3486,-40
3487,-36
3488,-33
3489,-30
3490,-26
3491,-23
3492,-19
3493,-15
3494,-12
3495,-8
3496,-4
3497,0
3498,3
3499,8
3500,12
3501,17
3502,21
3503,26
3504,31
3505,36
3506,41
3507,47
3508,52
3509,58
3510,63
3511,69
3512,75
3513,82
3514,88
3515,94
3516,101
3517,108
3518,114
3519,121
3520,128
3521,135
3522,141
3523,148
3524,155
3525,161
3526,168
3527,174
3528,180
3529,186
3530,192
3531,197
3532,203
3533,208
3534,213
3535,218
3536,222
3537,227
3538,231
3539,235
3540,239
3541,243
3542,247
3543,250
3544,254
3545,256
3546,259
3547,261
3548,263
3549,264
3550,265
3551,265
3552,265
3553,264
3554,262
3555,259
3556,256
3557,251
3558,246
3559,239
3560,233
3561,225
3562,216
3563,207
3564,197
3565,187
3566,176
3567,165
3568,153
3569,141
3570,129
3571,117
3572,106
3573,95
3574,84
3575,73
3576,63
3577,53
3578,44
3579,36
3580,28
3581,20
3582,14
3583,8
3584,3
3585,-1
3586,-6
3587,-10
3588,-13
3589,-17
3590,-20
3591,-23
3592,-26
3593,-29
3594,-32
3595,-34
3596,-37
3597,-39
3598,-42
3599,-45
3600,-47
3601,-49
3602,-52
3603,-54
3604,-56
3605,-57
3606,-59
3607,-60
3608,-61
3609,-62
3610,-62
3611,-63
3612,-63
3613,-63
3614,-62
3615,-62
3616,-61
3617,-60
3618,-59
3619,-58
3620,-57
3621,-56
3622,-55
3623,-54
3624,-53
3625,-52
3626,-51
3627,-50
3628,-49
3629,-48
3630,-48
3631,-47
3632,-46
3633,-46
3634,-45
3635,-44
3636,-44
3637,-44
3638,-43
3639,-43
3640,-43
3641,-42
3642,-42
3643,-42
3644,-42
3645,-42
3646,-42
3647,-42
3648,-42
3649,-42
3650,-42
3651,-43
3652,-43
3653,-43
3654,-43
3655,-44
3656,-44
3657,-44
3658,-45
3659,-45
3660,-45
3661,-46
3662,-46
3663,-46
3664,-47
3665,-47
3666,-47
3667,-48
3668,-48
3669,-48
3670,-48
3671,-48
3672,-48
3673,-49
3674,-49
3675,-49
3676,-49
3677,-49
3678,-48
3679,-48
3680,-48
3681,-48
3682,-48
3683,-48
3684,-47
3685,-47
3686,-47
3687,-46
3688,-46
3689,-45
3690,-45
3691,-45
3692,-44
3693,-44
3694,-43
3695,-43
3696,-42
3697,-42
3698,-42
3699,-41
3700,-41
3701,-40
3702,-40
3703,-40
3704,-39
3705,-39
3706,-39
3707,-39
3708,-39
3709,-39
3710,-38
3711,-38
3712,-38
3713,-39
3714,-39
3715,-39
3716,-39
3717,-39
3718,-39
3719,-40
3720,-40
3721,-40
3722,-41
3723,-41
3724,-41
3725,-42
3726,-42
3727,-43
3728,-43
3729,-44
3730,-44
3731,-44
3732,-45
3733,-45
3734,-45
3735,-46
3736,-46
3737,-46
3738,-46
3739,-46
3740,-46
3741,-46
3742,-45
3743,-45
3744,-45
3745,-44
3746,-44
3747,-43
3748,-42
3749,-41
3750,-40
3751,-39
3752,-38
3753,-37
3754,-35
3755,-34
3756,-32
3757,-31
3758,-29
3759,-27
3760,-25
3761,-24
3762,-22
3763,-20
3764,-18
3765,-16
3766,-13
3767,-11
3768,-9
3769,-7
3770,-5
3771,-4
3772,-2
3773,0
3774,1
3775,2
3776,4
3777,5
3778,7
3779,8
3780,9
3781,10
3782,11
3783,11
3784,12
3785,12
3786,12
3787,12
3788,12
3789,11
3790,11
3791,10
3792,9
3793,8
3794,7
3795,6
3796,4
3797,3
3798,2
3799,1
3800,0
3801,0
3802,-1
3803,-2
3804,-3
3805,-3
3806,-4
3807,-4
3808,-4
3809,-5
3810,-5
3811,-6
3812,-7
3813,-8
3814,-9
3815,-11
3816,-14
3817,-16
3818,-20
3819,-24
3820,-28
3821,-33
3822,-37
3823,-41
3824,-44
3825,-46
3826,-47
3827,-46
3828,-44
3829,-41
3830,-38
3831,-36
3832,-35
3833,-36
3834,-39
3835,-43
3836,-48
3837,-52
3838,-54
3839,-50
3840,-40
3841,-22
3842,5
3843,42
3844,88
3845,139
3846,191
3847,242
3848,287
3849,325
3850,356
3851,374
3852,373
3853,352
3854,305
3855,242
3856,170
3857,97
3858,33
3859,-20
3860,-63
3861,-95
3862,-115
3863,-124
3864,-122
3865,-111
3866,-95
3867,-76
3868,-59
3869,-45
3870,-35
3871,-30
3872,-28
3873,-29
3874,-33
3875,-37
3876,-40
3877,-42
3878,-43
3879,-42
3880,-40
3881,-37
3882,-33
3883,-30
3884,-27
3885,-25
3886,-24
3887,-24
3888,-24
3889,-25
3890,-26
3891,-28
3892,-29
3893,-30
3894,-31
3895,-32
3896,-33
3897,-33
3898,-33
3899,-33
3900,-32
3901,-31
3902,-30
3903,-28
3904,-26
3905,-24
3906,-22
3907,-19
3908,-16
3909,-13
3910,-10
3911,-7
3912,-4
3913,0
3914,2
3915,5
3916,9
3917,12
3918,15
3919,19
3920,22
3921,26
3922,30
3923,33
3924,37
3925,41
3926,45
3927,49
3928,54
3929,58
3930,62
3931,67
3932,72
3933,76
3934,81
3935,86
3936,91
3937,97
3938,102
3939,107
3940,113
3941,119
3942,124
3943,130
3944,136
3945,142
3946,148
3947,154
3948,160
3949,166
3950,172
3951,177
3952,183
3953,189
3954,195
3955,200
3956,205
3957,211
3958,216
3959,220
3960,225
3961,229
3962,233
3963,237
3964,240
3965,243
3966,246
3967,248
3968,250
3969,251
3970,252
3971,252
3972,252
3973,252
3974,251
3975,249
3976,247
3977,244
3978,241
3979,238
3980,233
3981,229
3982,224
3983,218
3984,212
3985,205
3986,198
3987,191
3988,183
3989,175
3990,166
3991,157
3992,148
3993,139
3994,129
3995,119
3996,109
3997,99
3998,89
3999,79
4000,68
4001,58
4002,48
4003,38
4004,28
4005,18
4006,8
4007,0
4008,-10
4009,-18
4010,-27
4011,-36
4012,-44
4013,-51
4014,-59
4015,-66
4016,-72
4017,-78
4018,-84
4019,-89
4020,-94
4021,-99
4022,-103
4023,-107
4024,-110
4025,-113
4026,-115
4027,-117
4028,-119
4029,-120
4030,-121
4031,-121
4032,-122
4033,-122
4034,-121
4035,-121
4036,-119
4037,-118
4038,-115
4039,-113
4040,-111
4041,-108
4042,-106
4043,-105
4044,-104
4045,-105
4046,-106
4047,-108
4048,-109
4049,-111
4050,-112
4051,-113
4052,-111
4053,-109
4054,-105
4055,-102
4056,-98
4057,-94
4058,-90
4059,-87
4060,-86
4061,-85
4062,-86
4063,-87
4064,-88
4065,-89
4066,-90
4067,-92
4068,-93
4069,-93
4070,-94
4071,-94
4072,-94
4073,-94
4074,-95
4075,-95
4076,-95
4077,-96
4078,-96
4079,-97
4080,-97
4081,-97
4082,-97
4083,-97
4084,-98
4085,-98
4086,-98
4087,-98
4088,-98
4089,-98
4090,-98
4091,-98
4092,-98
4093,-98
4094,-98
4095,-98
4096,-98
4097,-97
4098,-97
4099,-97
4100,-97
4101,-97
4102,-96
4103,-96
4104,-96
4105,-96
4106,-96
4107,-95
4108,-95
4109,-95
4110,-95
4111,-95
4112,-94
4113,-94
4114,-94
4115,-94
4116,-94
4117,-94
4118,-94
4119,-94
4120,-94
4121,-94
4122,-94
4123,-94
4124,-94
4125,-94
4126,-94
4127,-94
4128,-94
4129,-94
4130,-94
4131,-94
4132,-94
4133,-94
4134,-94
4135,-94
4136,-94
4137,-94
4138,-94
4139,-94
4140,-94
4141,-94
4142,-94
4143,-93
4144,-93
4145,-93
4146,-93
4147,-93
4148,-92
4149,-92
4150,-92
4151,-92
4152,-91
4153,-91
4154,-90
4155,-90
4156,-90
4157,-89
4158,-89
4159,-88
4160,-88
4161,-87
4162,-86
4163,-86
4164,-85
4165,-84
4166,-83
4167,-83
4168,-82
4169,-81
4170,-80
4171,-79
4172,-78
4173,-77
4174,-76
4175,-75
4176,-73
4177,-72
4178,-71
4179,-69
4180,-68
4181,-67
4182,-65
4183,-64
4184,-62
4185,-61
4186,-59
4187,-58
4188,-56
4189,-55
4190,-53
4191,-52
4192,-50
4193,-49
4194,-48
4195,-46
4196,-45
4197,-44
4198,-43
4199,-42
4200,-41
4201,-41
4202,-40
4203,-40
4204,-39
4205,-39
4206,-39
4207,-39
4208,-39
4209,-39
4210,-39
4211,-40
4212,-41
4213,-41
4214,-42
4215,-43
4216,-44
4217,-45
4218,-46
4219,-47
4220,-48
4221,-49
4222,-50
4223,-51
4224,-52
4225,-52
4226,-53
4227,-53
4228,-53
4229,-53
4230,-53
4231,-53
4232,-53
4233,-53
4234,-53
4235,-53
4236,-54
4237,-55
4238,-56
4239,-57
4240,-59
4241,-61
4242,-64
4243,-67
4244,-70
4245,-73
4246,-75
4247,-76
4248,-76
4249,-74
4250,-70
4251,-65
4252,-59
4253,-53
4254,-49
4255,-47
4256,-48
4257,-51
4258,-57
4259,-64
4260,-69
4261,-72
4262,-68
4263,-56
4264,-33
4265,-1
4266,38
4267,84
4268,132
4269,183
4270,239
4271,297
4272,351
4273,390
4274,401
4275,378
4276,322
4277,241
4278,148
4279,55
4280,-23
4281,-80
4282,-112
4283,-122
4284,-120
4285,-116
4286,-115
4287,-116
4288,-115
4289,-109
4290,-100
4291,-90
4292,-81
4293,-77
4294,-76
4295,-77
4296,-79
4297,-82
4298,-84
4299,-85
4300,-85
4301,-83
4302,-80
4303,-77
4304,-74
4305,-70
4306,-67
4307,-65
4308,-63
4309,-63
4310,-62
4311,-63
4312,-63
4313,-64
4314,-65
4315,-66
4316,-67
4317,-67
4318,-67
4319,-67
4320,-67
4321,-66
4322,-65
4323,-64
4324,-62
4325,-60
4326,-57
4327,-55
4328,-52
4329,-49
4330,-46
4331,-43
4332,-40
4333,-36
4334,-33
4335,-30
4336,-26
4337,-23
4338,-20
4339,-17
4340,-14
4341,-11
4342,-8
4343,-4
4344,-1
4345,1
4346,4
4347,8
4348,11
4349,15
4350,18
4351,22
4352,26
4353,30
4354,34
4355,38
4356,43
4357,47
4358,52
4359,57
4360,62
4361,67
4362,72
4363,77
4364,83
4365,89
4366,95
4367,100
4368,106
4369,113
4370,119
4371,125
4372,131
4373,137
4374,144
4375,150
4376,156
4377,162
4378,168
4379,174
4380,180
4381,186
4382,191
4383,196
4384,201
4385,206
4386,210
4387,215
4388,218
4389,222
4390,225
4391,227
4392,230
4393,231
4394,233
4395,234
4396,234
4397,234
4398,233
4399,232
4400,231
4401,229
4402,227
4403,224
4404,220
4405,216
4406,212
4407,207
4408,202
4409,196
4410,190
4411,184
4412,177
4413,170
4414,163
4415,155
4416,147
4417,139
4418,131
4419,123
4420,114
4421,106
4422,97
4423,88
4424,80
4425,71
4426,62
4427,54
4428,45
4429,37
4430,29
4431,21
4432,13
4433,6
4434,0
4435,-7
4436,-14
4437,-20
4438,-26
4439,-32
4440,-37
4441,-42
4442,-46
4443,-51
4444,-54
4445,-58
4446,-61
4447,-64
4448,-66
4449,-68
4450,-69
4451,-71
4452,-72
4453,-72
4454,-73
4455,-73
4456,-72
4457,-72
4458,-71
4459,-70
4460,-69
4461,-68
4462,-66
4463,-65
4464,-63
4465,-61
4466,-59
4467,-57
4468,-55
4469,-54
4470,-52
4471,-50
4472,-48
4473,-46
4474,-44
4475,-42
4476,-41
4477,-39
4478,-38
4479,-36
4480,-35
4481,-34
4482,-33
4483,-32
4484,-32
4485,-31
4486,-31
4487,-30
4488,-30
4489,-30
4490,-30
4491,-30
4492,-30
4493,-31
4494,-32
4495,-32
4496,-33
4497,-34
4498,-35
4499,-36
4500,-38
4501,-39
4502,-40
4503,-41
4504,-43
4505,-46
4506,-48
4507,-51
4508,-54
4509,-56
4510,-59
4511,-60
4512,-60
4513,-58
4514,-54
4515,-50
4516,-45
4517,-40
4518,-36
4519,-32
4520,-30
4521,-30
4522,-33
4523,-36
4524,-40
4525,-45
4526,-48
4527,-51
4528,-53
4529,-53
4530,-51
4531,-48
4532,-45
4533,-42
4534,-38
4535,-35
4536,-32
4537,-30
4538,-28
4539,-27
4540,-26
4541,-25
4542,-24
4543,-23
4544,-22
4545,-22
4546,-21
4547,-20
4548,-20
4549,-20
4550,-19
4551,-19
4552,-20
4553,-20
4554,-20
4555,-20
4556,-21
4557,-21
4558,-22
4559,-23
4560,-23
4561,-24
4562,-25
4563,-26
4564,-27
4565,-28
4566,-29
4567,-29
4568,-30
4569,-31
4570,-32
4571,-33
4572,-34
4573,-35
4574,-35
4575,-36
4576,-37
4577,-37
4578,-37
4579,-38
4580,-38
4581,-38
4582,-38
4583,-37
4584,-37
4585,-36
4586,-35
4587,-35
4588,-33
4589,-32
4590,-31
4591,-29
4592,-28
4593,-26
4594,-24
4595,-22
4596,-20
4597,-17
4598,-15
4599,-12
4600,-10
4601,-7
4602,-5
4603,-2
4604,0
4605,3
4606,6
4607,9
4608,12
4609,15
4610,18
4611,20
4612,22
4613,23
4614,23
4615,23
4616,23
4617,23
4618,22
4619,22
4620,22
4621,23
4622,24
4623,25
4624,27
4625,28
4626,29
4627,29
4628,30
4629,29
4630,27
4631,26
4632,24
4633,22
4634,19
4635,17
4636,15
4637,14
4638,12
4639,11
4640,9
4641,8
4642,7
4643,5
4644,4
4645,3
4646,2
4647,0
4648,0
4649,-2
4650,-5
4651,-7
4652,-9
4653,-12
4654,-15
4655,-16
4656,-17
4657,-15
4658,-13
4659,-9
4660,-4
4661,2
4662,8
4663,15
4664,19
4665,20
4666,19
4667,15
4668,9
4669,2
4670,-6
4671,-15
4672,-21
4673,-22
4674,-18
4675,-8
4676,7
4677,31
4678,62
4679,100
4680,142
4681,183
4682,222
4683,259
4684,292
4685,327
4686,359
4687,380
4688,385
4689,365
4690,319
4691,255
4692,178
4693,100
4694,33
4695,-18
4696,-48
4697,-57
4698,-53
4699,-42
4700,-31
4701,-23
4702,-16
4703,-9
4704,-1
4705,6
4706,10
4707,11
4708,9
4709,5
4710,0
4711,-3
4712,-6
4713,-8
4714,-8
4715,-6
4716,-4
4717,-1
4718,1
4719,4
4720,6
4721,7
4722,8
4723,9
4724,8
4725,8
4726,7
4727,7
4728,6
4729,5
4730,4
4731,4
4732,4
4733,4
4734,4
4735,4
4736,5
4737,6
4738,8
4739,10
4740,12
4741,14
4742,16
4743,19
4744,22
4745,24
4746,27
4747,30
4748,33
4749,36
4750,39
4751,42
4752,45
4753,48
4754,51
4755,54
4756,57
4757,60
4758,63
4759,66
4760,68
4761,71
4762,74
4763,77
4764,80
4765,83
4766,86
4767,89
4768,92
4769,95
4770,98
4771,101
4772,104
4773,107
4774,110
4775,113
4776,116
4777,119
4778,123
4779,126
4780,129
4781,132
4782,135
4783,139
4784,142
4785,145
4786,148
4787,151
4788,154
4789,157
4790,160
4791,163
4792,165
4793,168
4794,170
4795,173
4796,175
4797,177
4798,179
4799,181
4800,182
4801,184
4802,185
4803,185
4804,186
4805,186
4806,186
4807,186
4808,186
4809,185
4810,184
4811,182
4812,181
4813,178
4814,176
4815,173
4816,170
4817,167
4818,163
4819,159
4820,154
4821,149
4822,144
4823,139
4824,133
4825,127
4826,121
4827,114
4828,107
4829,100
4830,92
4831,85
4832,77
4833,69
4834,61
4835,53
4836,44
4837,36
4838,28
4839,19
4840,10
4841,2
4842,-6
4843,-14
4844,-22
4845,-31
4846,-39
4847,-47
4848,-55
4849,-62
4850,-70
4851,-77
4852,-84
4853,-90
4854,-97
4855,-103
4856,-109
4857,-114
4858,-119
4859,-124
4860,-129
4861,-133
4862,-137
4863,-140
4864,-144
4865,-146
4866,-149
4867,-151
4868,-153
4869,-154
4870,-156
4871,-157
4872,-157
4873,-158
4874,-158
4875,-158
4876,-157
4877,-157
4878,-156
4879,-155
4880,-154
4881,-152
4882,-151
4883,-149
4884,-147
4885,-146
4886,-144
4887,-142
4888,-140
4889,-138
4890,-136
4891,-134
4892,-131
4893,-129
4894,-127
4895,-125
4896,-123
4897,-122
4898,-120
4899,-118
4900,-116
4901,-115
4902,-113
4903,-112
4904,-110
4905,-109
4906,-108
4907,-107
4908,-106
4909,-105
4910,-104
4911,-103
4912,-103
4913,-102
4914,-102
4915,-101
4916,-101
4917,-101
4918,-101
4919,-100
4920,-100
4921,-100
4922,-100
4923,-100
4924,-100
4925,-100
4926,-100
4927,-101
4928,-101
4929,-101
4930,-101
4931,-101
4932,-101
4933,-101
4934,-101
4935,-101
4936,-101
4937,-101
4938,-101
4939,-101
4940,-101
4941,-100
4942,-100
4943,-100
4944,-100
4945,-99
4946,-99
4947,-99
4948,-98
4949,-98
4950,-97
4951,-97
4952,-96
4953,-96
4954,-95
4955,-95
4956,-94
4957,-94
4958,-93
4959,-93
4960,-92
4961,-92
4962,-91
4963,-90
4964,-90
4965,-89
4966,-89
4967,-89
4968,-88
4969,-88
4970,-87
4971,-87
4972,-87
4973,-86
4974,-86
4975,-86
4976,-86
4977,-85
4978,-85
4979,-85
4980,-85
4981,-85
4982,-85
4983,-85
4984,-85
4985,-84
4986,-84
4987,-84
4988,-84
4989,-84
4990,-83
4991,-83
4992,-83
4993,-82
4994,-82
4995,-81
4996,-81
4997,-80
4998,-79
4999,-79
5000,-78
5001,-77
5002,-76
5003,-75
5004,-73
5005,-72
5006,-71
5007,-69
5008,-67
5009,-66
5010,-64
5011,-62
5012,-60
5013,-58
5014,-56
5015,-54
5016,-52
5017,-50
5018,-48
5019,-46
5020,-44
5021,-42
5022,-40
5023,-38
5024,-36
5025,-35
5026,-33
5027,-31
5028,-29
5029,-28
5030,-26
5031,-25
5032,-23
5033,-22
5034,-21
5035,-20
5036,-19
5037,-19
5038,-18
5039,-18
5040,-18
5041,-18
5042,-18
5043,-18
5044,-19
5045,-19
5046,-20
5047,-20
5048,-21
5049,-21
5050,-21
5051,-22
5052,-23
5053,-24
5054,-25
5055,-26
5056,-27
5057,-27
5058,-27
5059,-25
5060,-22
5061,-18
5062,-14
5063,-10
5064,-6
5065,-4
5066,-3
5067,-4
5068,-9
5069,-16
5070,-24
5071,-33
5072,-42
5073,-50
5074,-56
5075,-59
5076,-60
5077,-57
5078,-53
5079,-48
5080,-44
5081,-41
5082,-41
5083,-42
5084,-44
5085,-48
5086,-50
5087,-48
5088,-41
5089,-24
5090,0
5091,34
5092,73
5093,115
5094,162
5095,220
5096,287
5097,360
5098,424
5099,460
5100,454
5101,407
5102,329
5103,243
5104,163
5105,96
5106,44
5107,1
5108,-35
5109,-64
5110,-82
5111,-88
5112,-83
5113,-69
5114,-51
5115,-32
5116,-15
5117,-2
5118,6
5119,10
5120,10
5121,7
5122,2
5123,-3
5124,-8
5125,-12
5126,-14
5127,-15
5128,-14
5129,-13
5130,-11
5131,-9
5132,-8
5133,-8
5134,-8
5135,-9
5136,-11
5137,-12
5138,-14
5139,-16
5140,-18
5141,-20
5142,-22
5143,-23
5144,-24
5145,-24
5146,-25
5147,-24
5148,-24
5149,-23
5150,-22
5151,-20
5152,-19
5153,-17
5154,-14
5155,-12
5156,-9
5157,-7
5158,-4
5159,-1
5160,1
5161,4
5162,7
5163,10
5164,13
5165,17
5166,20
5167,23
5168,27
5169,30
5170,34
5171,38
5172,42
5173,46
5174,50
5175,54
5176,58
5177,63
5178,68
5179,72
5180,77
5181,82
5182,87
5183,93
5184,98
5185,104
5186,110
5187,115
5188,121
5189,127
5190,133
5191,140
5192,146
5193,152
5194,159
5195,165
5196,172
5197,178
5198,185
5199,191
5200,197
5201,204
5202,210
5203,216
5204,222
5205,228
5206,233
5207,239
5208,244
5209,249
5210,253
5211,257
5212,261
5213,265
5214,268
5215,271
5216,274
5217,276
5218,277
5219,278
5220,279
5221,279
5222,279
5223,278
5224,277
5225,275
5226,273
5227,271
5228,268
5229,264
5230,260
5231,256
5232,251
5233,246
5234,240
5235,234
5236,228
5237,221
5238,214
5239,207
5240,199
5241,191
5242,182
5243,173
5244,164
5245,155
5246,145
5247,135
5248,126
5249,116
5250,106
5251,97
5252,87
5253,78
5254,69
5255,60
5256,51
5257,43
5258,35
5259,28
5260,21
5261,15
5262,9
5263,3
5264,-1
5265,-6
5266,-10
5267,-15
5268,-19
5269,-22
5270,-26
5271,-29
5272,-32
5273,-35
5274,-37
5275,-40
5276,-42
5277,-45
5278,-47
5279,-48
5280,-50
5281,-51
5282,-53
5283,-54
5284,-54
5285,-55
5286,-56
5287,-56
5288,-56
5289,-56
5290,-56
5291,-56
5292,-55
5293,-55
5294,-54
5295,-53
5296,-53
5297,-52
5298,-51
5299,-51
5300,-50
5301,-50
5302,-49
5303,-48
5304,-48
5305,-48
5306,-47
5307,-47
5308,-47
5309,-46
5310,-46
5311,-46
5312,-46
5313,-46
5314,-46
5315,-47
5316,-47
5317,-47
5318,-47
5319,-48
5320,-48
5321,-49
5322,-49
5323,-50
5324,-50
5325,-51
5326,-52
5327,-52
5328,-53
5329,-54
5330,-54
5331,-55
5332,-56
5333,-56
5334,-57
5335,-58
5336,-58
5337,-59
5338,-60
5339,-61
5340,-61
5341,-62
5342,-63
5343,-63
5344,-64
5345,-64
5346,-65
5347,-66
5348,-66
5349,-67
5350,-67
5351,-68
5352,-68
5353,-69
5354,-70
5355,-70
5356,-71
5357,-71
5358,-72
5359,-72
5360,-73
5361,-74
5362,-74
5363,-75
5364,-76
5365,-76
5366,-77
5367,-78
5368,-78
5369,-79
5370,-80
5371,-80
5372,-81
5373,-82
5374,-83
5375,-83
5376,-84
5377,-85
5378,-85
5379,-86
5380,-87
5381,-87
5382,-88
5383,-89
5384,-89
5385,-90
5386,-90
5387,-91
5388,-91
5389,-92
5390,-92
5391,-92
5392,-93
5393,-93
5394,-93
5395,-93
5396,-93
5397,-93
5398,-93
5399,-93
5400,-93
5401,-92
5402,-92
5403,-92
5404,-91
5405,-91
5406,-90
5407,-90
5408,-89
5409,-89
5410,-88
5411,-87
5412,-86
5413,-86
5414,-85
5415,-84
5416,-83
5417,-82
5418,-81
5419,-80
5420,-79
5421,-78
5422,-77
5423,-76
5424,-75
5425,-74
5426,-73
5427,-72
5428,-71
5429,-70
5430,-69
5431,-68
5432,-68
5433,-67
5434,-66
5435,-65
5436,-65
5437,-64
5438,-63
5439,-63
5440,-62
5441,-62
5442,-61
5443,-61
5444,-61
5445,-61
5446,-61
5447,-61
5448,-61
5449,-61
5450,-61
5451,-61
5452,-62
5453,-62
5454,-63
5455,-63
5456,-64
5457,-65
5458,-66
5459,-67
5460,-67
5461,-68
5462,-69
5463,-69
5464,-70
5465,-70
5466,-71
5467,-71
5468,-71
5469,-71
5470,-70
5471,-70
5472,-69
5473,-68
5474,-68
5475,-67
5476,-67
5477,-67
5478,-67
5479,-68
5480,-68
5481,-70
5482,-72
5483,-74
5484,-77
5485,-80
5486,-84
5487,-88
5488,-92
5489,-96
5490,-98
5491,-100
5492,-100
5493,-99
5494,-97
5495,-94
5496,-91
5497,-89
5498,-88
5499,-89
5500,-91
5501,-93
5502,-95
5503,-95
5504,-93
5505,-85
5506,-72
5507,-51
5508,-23
5509,12
5510,54
5511,99
5512,144
5513,187
5514,226
5515,259
5516,287
5517,305
5518,309
5519,295
5520,258
5521,205
5522,144
5523,80
5524,22
5525,-29
5526,-76
5527,-113
5528,-142
5529,-161
5530,-169
5531,-169
5532,-161
5533,-148
5534,-133
5535,-119
5536,-106
5537,-97
5538,-91
5539,-87
5540,-86
5541,-87
5542,-89
5543,-90
5544,-90
5545,-89
5546,-87
5547,-84
5548,-80
5549,-76
5550,-72
5551,-68
5552,-66
5553,-64
5554,-63
5555,-63
5556,-64
5557,-64
5558,-65
5559,-67
5560,-68
5561,-68
5562,-69
5563,-70
5564,-70
5565,-69
5566,-69
5567,-68
5568,-67
5569,-65
5570,-64
5571,-62
5572,-59
5573,-57
5574,-54
5575,-51
5576,-49
5577,-46
5578,-43
5579,-40
5580,-37
5581,-34
5582,-31
5583,-28
5584,-25
5585,-22
5586,-19
5587,-16
5588,-13
5589,-10
5590,-6
5591,-3
5592,0
5593,3
5594,6
5595,10
5596,14
5597,18
5598,23
5599,27
5600,31
5601,36
5602,41
5603,46
5604,51
5605,57
5606,62
5607,68
5608,74
5609,80
5610,86
5611,92
5612,98
5613,104
5614,111
5615,117
5616,124
5617,131
5618,137
5619,144
5620,151
5621,157
5622,164
5623,170
5624,176
5625,182
5626,188
5627,194
5628,199
5629,205
5630,210
5631,214
5632,219
5633,223
5634,226
5635,230
5636,232
5637,235
5638,237
5639,238
5640,239
5641,240
5642,240
5643,240
5644,239
5645,237
5646,235
5647,233
5648,230
5649,227
5650,223
5651,218
5652,214
5653,208
5654,203
5655,197
5656,190
5657,184
5658,177
5659,169
5660,162
5661,154
5662,146
5663,138
5664,129
5665,121
5666,112
5667,104
5668,95
5669,87
5670,78
5671,70
5672,61
5673,53
5674,45
5675,37
5676,29
5677,22
5678,15
5679,8
5680,1
5681,-4
5682,-10
5683,-16
5684,-22
5685,-27
5686,-32
5687,-36
5688,-40
5689,-44
5690,-47
5691,-50
5692,-53
5693,-55
5694,-57
5695,-59
5696,-60
5697,-61
5698,-62
5699,-63
5700,-63
5701,-63
5702,-63
5703,-63
5704,-62
5705,-62
5706,-61
5707,-60
5708,-59
5709,-58
5710,-57
5711,-55
5712,-54
5713,-53
5714,-51
5715,-50
5716,-48
5717,-47
5718,-45
5719,-44
5720,-43
5721,-41
5722,-40
5723,-39
5724,-38
5725,-37
5726,-36
5727,-35
5728,-34
5729,-33
5730,-32
5731,-32
5732,-31
5733,-31
5734,-30
5735,-30
5736,-30
5737,-30
5738,-29
5739,-29
5740,-29
5741,-29
5742,-30
5743,-30
5744,-30
5745,-30
5746,-30
5747,-31
5748,-31
5749,-31
5750,-32
5751,-32
5752,-32
5753,-33
5754,-33
5755,-34
5756,-34
5757,-34
5758,-35
5759,-35
5760,-35
5761,-36
5762,-36
5763,-36
5764,-36
5765,-37
5766,-37
5767,-37
5768,-37
5769,-37
5770,-37
5771,-37
5772,-37
5773,-37
5774,-37
5775,-37
5776,-37
5777,-37
5778,-37
5779,-37
5780,-36
5781,-36
5782,-36
5783,-36
5784,-36
5785,-36
5786,-35
5787,-35
5788,-35
5789,-35
5790,-35
5791,-35
5792,-35
5793,-35
5794,-35
5795,-35
5796,-35
5797,-35
5798,-35
5799,-35
5800,-35
5801,-35
5802,-35
5803,-36
5804,-36
5805,-36
5806,-37
5807,-37
5808,-37
5809,-38
5810,-38
5811,-39
5812,-39
5813,-39
5814,-40
5815,-40
5816,-41
5817,-41
5818,-41
5819,-42
5820,-42
5821,-42
5822,-42
5823,-42
5824,-43
5825,-42
5826,-42
5827,-42
5828,-42
5829,-42
5830,-41
5831,-41
5832,-40
5833,-39
5834,-38
5835,-37
5836,-36
5837,-35
5838,-33
5839,-32
5840,-30
5841,-29
5842,-27
5843,-25
5844,-23
5845,-22
5846,-20
5847,-18
5848,-16
5849,-14
5850,-13
5851,-11
5852,-9
5853,-8
5854,-6
5855,-5
5856,-3
5857,-2
5858,-2
5859,-2
5860,-2
5861,-2
5862,-3
5863,-3
5864,-4
5865,-3
5866,-2
5867,0
5868,2
5869,5
5870,8
5871,11
5872,13
5873,13
5874,13
5875,10
5876,5
5877,1
5878,-3
5879,-8
5880,-13
5881,-17
5882,-20
5883,-22
5884,-22
5885,-22
5886,-22
5887,-21
5888,-20
5889,-20
5890,-19
5891,-19
5892,-18
5893,-18
5894,-18
5895,-18
5896,-18
5897,-19
5898,-20
5899,-21
5900,-23
5901,-25
5902,-28
5903,-30
5904,-31
5905,-32
5906,-32
5907,-31
5908,-29
5909,-27
5910,-25
5911,-26
5912,-29
5913,-35
5914,-43
5915,-54
5916,-67
5917,-79
5918,-88
5919,-92
5920,-89
5921,-78
5922,-57
5923,-25
5924,16
5925,67
5926,123
5927,179
5928,231
5929,277
5930,316
5931,352
5932,383
5933,398
5934,393
5935,360
5936,299
5937,223
5938,143
5939,71
5940,14
5941,-30
5942,-65
5943,-90
5944,-106
5945,-112
5946,-108
5947,-97
5948,-83
5949,-68
5950,-56
5951,-47
5952,-42
5953,-41
5954,-43
5955,-47
5956,-52
5957,-57
5958,-60
5959,-60
5960,-59
5961,-57
5962,-53
5963,-48
5964,-43
5965,-39
5966,-35
5967,-33
5968,-31
5969,-30
5970,-29
5971,-30
5972,-30
5973,-31
5974,-32
5975,-33
5976,-34
5977,-36
5978,-37
5979,-37
5980,-38
5981,-38
5982,-38
5983,-38
5984,-37
5985,-36
5986,-35
5987,-34
5988,-32
5989,-30
5990,-28
5991,-26
5992,-24
5993,-21
5994,-19
5995,-16
5996,-14
5997,-12
5998,-9
5999,-7
6000,-4
6001,-2
6002,0
6003,2
6004,5
6005,8
6006,10
6007,13
6008,16
6009,20
6010,23
6011,26
6012,30
6013,34
6014,38
6015,42
6016,47
6017,52
6018,56
6019,61
6020,66
6021,72
6022,77
6023,83
6024,89
6025,95
6026,101
6027,107
6028,113
6029,120
6030,126
6031,133
6032,139
6033,146
6034,153
6035,159
6036,166
6037,172
6038,178
6039,185
6040,191
6041,196
6042,202
6043,208
6044,213
6045,218
6046,222
6047,227
6048,231
6049,234
6050,237
6051,240
6052,242
6053,244
6054,246
6055,247
6056,247
6057,247
6058,247
6059,246
6060,245
6061,243
6062,240
6063,237
6064,234
6065,230
6066,226
6067,221
6068,216
6069,210
6070,204
6071,198
6072,191
6073,184
6074,177
6075,169
6076,161
6077,153
6078,145
6079,137
6080,128
6081,119
6082,110
6083,102
6084,93
6085,84
6086,75
6087,67
6088,58
6089,49
6090,41
6091,33
6092,25
6093,17
6094,10
6095,2
6096,-4
6097,-10
6098,-17
6099,-23
6100,-29
6101,-34
6102,-39
6103,-44
6104,-48
6105,-52
6106,-56
6107,-60
6108,-63
6109,-65
6110,-68
6111,-70
6112,-72
6113,-73
6114,-74
6115,-75
6116,-76
6117,-76
6118,-76
6119,-76
6120,-76
6121,-75
6122,-75
6123,-74
6124,-73
6125,-72
6126,-71
6127,-69
6128,-68
6129,-67
6130,-65
6131,-64
6132,-62
6133,-61
6134,-59
6135,-58
6136,-56
6137,-55
6138,-53
6139,-52
6140,-51
6141,-49
6142,-48
6143,-47
6144,-46
6145,-45
6146,-44
6147,-44
6148,-43
6149,-43
6150,-42
6151,-42
6152,-42
6153,-41
6154,-41
6155,-41
6156,-42
6157,-42
6158,-42
6159,-42
6160,-43
6161,-43
6162,-44
6163,-44
6164,-45
6165,-45
6166,-46
6167,-46
6168,-47
6169,-47
6170,-48
6171,-48
6172,-49
6173,-50
6174,-51
6175,-52
6176,-53
6177,-55
6178,-56
6179,-58
6180,-59
6181,-60
6182,-61
6183,-61
6184,-61
6185,-61
6186,-58
6187,-53
6188,-48
6189,-46
6190,-53
6191,-69
6192,-88
6193,-101
6194,-101
6195,-85
6196,-63
6197,-42
6198,-30
6199,-28
6200,-32
6201,-36
6202,-42
6203,-47
6204,-53
6205,-61
6206,-70
6207,-78
6208,-86
6209,-92
6210,-95
6211,-94
6212,-90
6213,-85
6214,-79
6215,-73
6216,-67
6217,-62
6218,-59
6219,-59
6220,-60
6221,-62
6222,-65
6223,-68
6224,-71
6225,-74
6226,-76
6227,-77
6228,-78
6229,-78
6230,-79
6231,-79
6232,-80
6233,-80
6234,-80
6235,-80
6236,-80
6237,-80
6238,-80
6239,-79
6240,-79
6241,-78
6242,-77
6243,-76
6244,-75
6245,-74
6246,-73
6247,-72
6248,-70
6249,-69
6250,-67
6251,-66
6252,-64
6253,-63
6254,-61
6255,-59
6256,-58
6257,-56
6258,-54
6259,-53
6260,-51
6261,-49
6262,-48
6263,-46
6264,-45
6265,-44
6266,-43
6267,-41
6268,-41
6269,-40
6270,-39
6271,-39
6272,-38
6273,-38
6274,-38
6275,-38
6276,-39
6277,-39
6278,-40
6279,-41
6280,-42
6281,-43
6282,-44
6283,-45
6284,-47
6285,-48
6286,-50
6287,-51
6288,-52
6289,-53
6290,-54
6291,-55
6292,-56
6293,-57
6294,-57
6295,-58
6296,-58
6297,-59
6298,-59
6299,-60
6300,-60
6301,-61
6302,-62
6303,-63
6304,-65
6305,-67
6306,-69
6307,-72
6308,-75
6309,-78
6310,-80
6311,-81
6312,-81
6313,-79
6314,-77
6315,-73
6316,-68
6317,-64
6318,-62
6319,-61
6320,-64
6321,-69
6322,-76
6323,-84
6324,-91
6325,-96
6326,-95
6327,-85
6328,-66
6329,-35
6330,5
6331,51
6332,100
6333,150
6334,201
6335,254
6336,304
6337,341
6338,354
6339,335
6340,284
6341,213
6342,137
6343,68
6344,14
6345,-27
6346,-59
6347,-81
6348,-96
6349,-100
6350,-95
6351,-85
6352,-72
6353,-60
6354,-52
6355,-48
6356,-48
6357,-52
6358,-59
6359,-68
6360,-76
6361,-82
6362,-86
6363,-88
6364,-89
6365,-87
6366,-83
6367,-79
6368,-75
6369,-72
6370,-69
6371,-67
6372,-65
6373,-64
6374,-63
6375,-64
6376,-64
6377,-65
6378,-66
6379,-67
6380,-68
6381,-70
6382,-71
6383,-72
6384,-73
6385,-74
6386,-75
6387,-75
6388,-75
6389,-74
6390,-74
6391,-73
6392,-72
6393,-70
6394,-68
6395,-66
6396,-64
6397,-62
6398,-59
6399,-57
6400,-54
6401,-51
6402,-49
6403,-46
6404,-43
6405,-40
6406,-38
6407,-35
6408,-32
6409,-29
6410,-26
6411,-22
6412,-19
6413,-16
6414,-12
6415,-8
6416,-5
6417,-1
6418,3
6419,7
6420,11
6421,16
6422,21
6423,26
6424,31
6425,36
6426,42
6427,48
6428,54
6429,60
6430,66
6431,72
6432,78
6433,85
6434,91
6435,98
6436,104
6437,111
6438,117
6439,123
6440,129
6441,135
6442,141
6443,147
6444,153
6445,158
6446,163
6447,169
6448,174
6449,179
6450,184
6451,190
6452,195
6453,200
6454,206
6455,211
6456,216
6457,221
6458,227
6459,231
6460,236
6461,240
6462,244
6463,247
6464,250
6465,251
6466,252
6467,252
6468,250
6469,248
6470,244
6471,239
6472,233
6473,226
6474,218
6475,208
6476,198
6477,187
6478,175
6479,162
6480,149
6481,136
6482,122
6483,108
6484,95
6485,82
6486,69
6487,57
6488,45
6489,34
6490,23
6491,14
6492,5
6493,-3
6494,-10
6495,-17
6496,-22
6497,-28
6498,-32
6499,-36
6500,-40
6501,-44
6502,-47
6503,-50
6504,-52
6505,-55
6506,-57
6507,-59
6508,-62
6509,-64
6510,-66
6511,-68
6512,-70
6513,-72
6514,-74
6515,-76
6516,-77
6517,-79
6518,-80
6519,-81
6520,-82
6521,-82
6522,-82
6523,-82
6524,-82
6525,-81
6526,-81
6527,-80
6528,-79
6529,-77
6530,-76
6531,-74
6532,-73
6533,-71
6534,-69
6535,-68
6536,-66
6537,-64
6538,-63
6539,-62
6540,-60
6541,-59
6542,-58
6543,-57
6544,-56
6545,-55
6546,-54
6547,-53
6548,-52
6549,-52
6550,-51
6551,-51
6552,-51
6553,-50
6554,-50
6555,-50
6556,-50
6557,-50
6558,-50
6559,-50
6560,-50
6561,-51
6562,-51
6563,-51
6564,-51
6565,-52
6566,-52
6567,-52
6568,-53
6569,-53
6570,-54
6571,-54
6572,-54
6573,-55
6574,-55
6575,-55
6576,-55
6577,-56
6578,-56
6579,-56
6580,-56
6581,-57
6582,-57
6583,-57
6584,-57
6585,-57
6586,-57
6587,-57
6588,-57
6589,-57
6590,-57
6591,-57
6592,-57
6593,-57
6594,-57
6595,-57
6596,-57
6597,-57
6598,-57
6599,-57
6600,-57
6601,-57
6602,-57
6603,-57
6604,-57
6605,-57
6606,-57
6607,-57
6608,-58
6609,-58
6610,-58
6611,-58
6612,-58
6613,-59
6614,-59
6615,-59
6616,-60
6617,-60
6618,-60
6619,-60
6620,-61
6621,-61
6622,-61
6623,-61
6624,-62
6625,-62
6626,-62
6627,-62
6628,-62
6629,-63
6630,-63
6631,-62
6632,-62
6633,-62
6634,-62
6635,-62
6636,-61
6637,-61
6638,-60
6639,-60
6640,-59
6641,-58
6642,-57
6643,-56
6644,-55
6645,-54
6646,-53
6647,-51
6648,-50
6649,-49
6650,-48
6651,-47
6652,-46
6653,-45
6654,-44
6655,-43
6656,-42
6657,-41
6658,-40
6659,-39
6660,-38
6661,-37
6662,-35
6663,-34
6664,-32
6665,-30
6666,-28
6667,-26
6668,-24
6669,-21
6670,-19
6671,-17
6672,-16
6673,-14
6674,-12
6675,-11
6676,-10
6677,-10
6678,-9
6679,-10
6680,-11
6681,-12
6682,-14
6683,-16
6684,-18
6685,-20
6686,-22
6687,-25
6688,-27
6689,-30
6690,-32
6691,-34
6692,-35
6693,-37
6694,-38
6695,-40
6696,-41
6697,-41
6698,-42
6699,-42
6700,-43
6701,-44
6702,-45
6703,-46
6704,-47
6705,-48
6706,-50
6707,-52
6708,-54
6709,-56
6710,-58
6711,-59
6712,-60
6713,-59
6714,-57
6715,-53
6716,-47
6717,-40
6718,-31
6719,-23
6720,-15
6721,-10
6722,-7
6723,-7
6724,-5
6725,-3
6726,0
6727,5
6728,7
6729,9
6730,15
6731,32
6732,66
6733,120
6734,194
6735,279
6736,364
6737,433
6738,469
6739,465
6740,421
6741,345
6742,249
6743,145
6744,42
6745,-47
6746,-113
6747,-148
6748,-152
6749,-132
6750,-104
6751,-80
6752,-64
6753,-55
6754,-47
6755,-37
6756,-27
6757,-19
6758,-15
6759,-16
6760,-20
6761,-24
6762,-28
6763,-31
6764,-32
6765,-31
6766,-29
6767,-26
6768,-23
6769,-19
6770,-16
6771,-14
6772,-13
6773,-13
6774,-14
6775,-15
6776,-16
6777,-18
6778,-20
6779,-22
6780,-23
6781,-25
6782,-26
6783,-27
6784,-27
6785,-27
6786,-27
6787,-27
6788,-26
6789,-25
6790,-24
6791,-22
6792,-20
6793,-18
6794,-16
6795,-14
6796,-11
6797,-9
6798,-6
6799,-4
6800,-1
6801,1
6802,3
6803,6
6804,9
6805,12
6806,14
6807,17
6808,20
6809,23
6810,27
6811,30
6812,33
6813,37
6814,40
6815,44
6816,48
6817,52
6818,56
6819,61
6820,65
6821,70
6822,75
6823,80
6824,85
6825,91
6826,96
6827,102
6828,108
6829,114
6830,120
6831,126
6832,133
6833,139
6834,146
6835,152
6836,159
6837,166
6838,172
6839,179
6840,186
6841,192
6842,199
6843,205
6844,212
6845,218
6846,224
6847,230
6848,235
6849,241
6850,246
6851,250
6852,255
6853,259
6854,263
6855,266
6856,269
6857,271
6858,273
6859,275
6860,276
6861,276
6862,276
6863,276
6864,275
6865,273
6866,271
6867,269
6868,265
6869,262
6870,258
6871,253
6872,248
6873,243
6874,237
6875,230
6876,223
6877,216
6878,209
6879,201
6880,193
6881,184
6882,176
6883,167
6884,158
6885,149
6886,139
6887,130
6888,121
6889,111
6890,102
6891,92
6892,83
6893,74
6894,65
6895,56
6896,47
6897,39
6898,31
6899,23
6900,15
6901,8
6902,1
6903,-5
6904,-11
6905,-17
6906,-23
6907,-28
6908,-33
6909,-38
6910,-42
6911,-45
6912,-49
6913,-52
6914,-54
6915,-56
6916,-58
6917,-60
6918,-61
6919,-62
6920,-62
6921,-63
6922,-63
6923,-62
6924,-62
6925,-61
6926,-60
6927,-59
6928,-58
6929,-57
6930,-55
6931,-53
6932,-52
6933,-50
6934,-48
6935,-46
6936,-45
6937,-43
6938,-41
6939,-39
6940,-38
6941,-36
6942,-34
6943,-33
6944,-32
6945,-30
6946,-29
6947,-28
6948,-27
6949,-26
6950,-26
6951,-25
6952,-25
6953,-25
6954,-25
6955,-25
6956,-25
6957,-25
6958,-26
6959,-26
6960,-27
6961,-28
6962,-29
6963,-30
6964,-31
6965,-32
6966,-33
6967,-34
6968,-36
6969,-37
6970,-38
6971,-40
6972,-41
6973,-43
6974,-44
6975,-46
6976,-47
6977,-48
6978,-50
6979,-51
6980,-52
6981,-53
6982,-55
6983,-56
6984,-57
6985,-58
6986,-58
6987,-59
6988,-60
6989,-61
6990,-61
6991,-62
6992,-62
6993,-62
6994,-63
6995,-63
6996,-63
6997,-63
6998,-63
6999,-63
7000,-63
7001,-63
7002,-63
7003,-63
7004,-62
7005,-62
7006,-62
7007,-62
7008,-62
7009,-62
7010,-62
7011,-62
7012,-62
7013,-62
7014,-62
7015,-62
7016,-62
7017,-62
7018,-63
7019,-63
7020,-63
7021,-64
7022,-64
7023,-65
7024,-66
7025,-66
7026,-67
7027,-68
7028,-68
7029,-69
7030,-70
7031,-71
7032,-72
7033,-73
7034,-74
7035,-75
7036,-76
7037,-76
7038,-77
7039,-78
7040,-79
7041,-79
7042,-80
7043,-80
7044,-81
7045,-81
7046,-81
7047,-81
7048,-81
7049,-81
7050,-81
7051,-81
7052,-80
7053,-79
7054,-79
7055,-78
7056,-77
7057,-76
7058,-74
7059,-73
7060,-71
7061,-70
7062,-68
7063,-66
7064,-64
7065,-62
7066,-60
7067,-58
7068,-56
7069,-54
7070,-52
7071,-50
7072,-48
7073,-45
7074,-43
7075,-41
7076,-39
7077,-38
7078,-36
7079,-34
7080,-33
7081,-31
7082,-30
7083,-29
7084,-28
7085,-27
7086,-26
7087,-25
7088,-25
7089,-25
7090,-25
7091,-25
7092,-25
7093,-25
7094,-26
7095,-27
7096,-27
7097,-28
7098,-29
7099,-30
7100,-31
7101,-33
7102,-34
7103,-35
7104,-36
7105,-37
7106,-38
7107,-39
7108,-40
7109,-41
7110,-42
7111,-43
7112,-44
7113,-45
7114,-45
7115,-47
7116,-48
7117,-51
7118,-54
7119,-57
7120,-61
7121,-66
7122,-70
7123,-74
7124,-76
7125,-76
7126,-74
7127,-69
7128,-63
7129,-55
7130,-47
7131,-39
7132,-34
7133,-33
7134,-38
7135,-47
7136,-61
7137,-79
7138,-99
7139,-118
7140,-133
7141,-141
7142,-139
7143,-125
7144,-97
7145,-60
7146,-14
7147,37
7148,93
7149,159
7150,232
7151,307
7152,373
7153,414
7154,418
7155,386
7156,322
7157,239
7158,148
7159,60
7160,-15
7161,-70
7162,-99
7163,-107
7164,-104
7165,-100
7166,-100
7167,-104
7168,-107
7169,-104
7170,-98
7171,-90
7172,-83
7173,-81
7174,-81
7175,-83
7176,-86
7177,-89
7178,-91
7179,-92
7180,-91
7181,-89
7182,-85
7183,-81
7184,-76
7185,-71
7186,-67
7187,-63
7188,-60
7189,-58
7190,-57
7191,-56
7192,-56
7193,-56
7194,-57
7195,-58
7196,-59
7197,-61
7198,-62
7199,-63
7200,-64
7201,-64
7202,-64
7203,-64
7204,-64
7205,-63
7206,-62
7207,-61
7208,-59
7209,-57
7210,-55
7211,-53
7212,-50
7213,-48
7214,-45
7215,-42
7216,-39
7217,-36
7218,-33
7219,-30
7220,-28
7221,-25
7222,-21
7223,-18
7224,-15
7225,-12
7226,-9
7227,-5
7228,-2
7229,1
7230,5
7231,9
7232,13
7233,17
7234,21
7235,26
7236,30
7237,35
7238,40
7239,45
7240,51
7241,56
7242,62
7243,67
7244,73
7245,79
7246,85
7247,91
7248,97
7249,104
7250,110
7251,116
7252,123
7253,129
7254,136
7255,142
7256,148
7257,154
7258,160
7259,166
7260,172
7261,177
7262,182
7263,188
7264,192
7265,197
7266,201
7267,205
7268,209
7269,213
7270,216
7271,219
7272,223
7273,225
7274,228
7275,230
7276,232
7277,234
7278,235
7279,235
7280,235
7281,235
7282,234
7283,233
7284,231
7285,228
7286,225
7287,221
7288,216
7289,211
7290,205
7291,198
7292,191
7293,183
7294,175
7295,167
7296,159
7297,150
7298,141
7299,132
7300,122
7301,113
7302,104
7303,95
7304,86
7305,77
7306,69
7307,61
7308,53
7309,45
7310,38
7311,31
7312,23
7313,17
7314,10
7315,4
7316,-2
7317,-7
7318,-13
7319,-18
7320,-23
7321,-28
7322,-33
7323,-37
7324,-41
7325,-45
7326,-48
7327,-51
7328,-54
7329,-56
7330,-58
7331,-60
7332,-61
7333,-63
7334,-64
7335,-64
7336,-65
7337,-65
7338,-65
7339,-65
7340,-64
7341,-64
7342,-63
7343,-62
7344,-61
7345,-60
7346,-59
7347,-58
7348,-57
7349,-55
7350,-54
7351,-53
7352,-51
7353,-50
7354,-49
7355,-47
7356,-46
7357,-45
7358,-44
7359,-42
7360,-41
7361,-40
7362,-39
7363,-39
7364,-38
7365,-37
7366,-36
7367,-36
7368,-35
7369,-35
7370,-35
7371,-34
7372,-34
7373,-34
7374,-34
7375,-34
7376,-34
7377,-35
7378,-35
7379,-35
7380,-36
7381,-36
7382,-37
7383,-37
7384,-38
7385,-38
7386,-39
7387,-40
7388,-40
7389,-41
7390,-42
7391,-43
7392,-43
7393,-44
7394,-45
7395,-46
7396,-46
7397,-47
7398,-48
7399,-48
7400,-49
7401,-50
7402,-50
7403,-51
7404,-52
7405,-52
7406,-53
7407,-53
7408,-54
7409,-54
7410,-55
7411,-55
7412,-55
7413,-55
7414,-56
7415,-56
7416,-56
7417,-56
7418,-57
7419,-57
7420,-57
7421,-57
7422,-57
7423,-57
7424,-57
7425,-57
7426,-57
7427,-57
7428,-57
7429,-57
7430,-57
7431,-57
7432,-57
7433,-57
7434,-57
7435,-57
7436,-57
7437,-58
7438,-58
7439,-58
7440,-58
7441,-58
7442,-58
7443,-59
7444,-59
7445,-59
7446,-60
7447,-60
7448,-60
7449,-61
7450,-61
7451,-62
7452,-62
7453,-63
7454,-63
7455,-64
7456,-65
7457,-65
7458,-66
7459,-67
7460,-67
7461,-68
7462,-68
7463,-69
7464,-70
7465,-70
7466,-71
7467,-71
7468,-72
7469,-72
7470,-73
7471,-73
7472,-73
7473,-74
7474,-74
7475,-74
7476,-74
7477,-74
7478,-74
7479,-73
7480,-73
7481,-73
7482,-72
7483,-71
7484,-71
7485,-70
7486,-69
7487,-68
7488,-67
7489,-66
7490,-65
7491,-64
7492,-63
7493,-62
7494,-61
7495,-60
7496,-59
7497,-58
7498,-58
7499,-57
7500,-56
7501,-55
7502,-54
7503,-53
7504,-51
7505,-50
7506,-48
7507,-46
7508,-43
7509,-41
7510,-38
7511,-35
7512,-32
7513,-29
7514,-26
7515,-24
7516,-21
7517,-19
7518,-17
7519,-16
7520,-15
7521,-14
7522,-15
7523,-15
7524,-17
7525,-19
7526,-21
7527,-24
7528,-28
7529,-31
7530,-34
7531,-38
7532,-41
7533,-44
7534,-48
7535,-50
7536,-53
7537,-55
7538,-57
7539,-58
7540,-60
7541,-60
7542,-61
7543,-62
7544,-62
7545,-63
7546,-64
7547,-65
7548,-66
7549,-68
7550,-69
7551,-70
7552,-71
7553,-70
7554,-69
7555,-66
7556,-62
7557,-58
7558,-54
7559,-50
7560,-49
7561,-49
7562,-53
7563,-58
7564,-66
7565,-74
7566,-80
7567,-83
7568,-81
7569,-71
7570,-52
7571,-23
7572,15
7573,63
7574,116
7575,172
7576,227
7577,276
7578,315
7579,340
7580,349
7581,339
7582,312
7583,268
7584,210
7585,144
7586,72
7587,2
7588,-61
7589,-115
7590,-155
7591,-180
7592,-189
7593,-184
7594,-167
7595,-140
7596,-108
7597,-76
7598,-46
7599,-21
7600,-3
7601,6
7602,8
7603,4
7604,-5
7605,-18
7606,-31
7607,-43
7608,-53
7609,-60
7610,-63
7611,-63
7612,-61
7613,-57
7614,-52
7615,-48
7616,-44
7617,-42
7618,-40
7619,-40
7620,-41
7621,-42
7622,-43
7623,-44
7624,-44
7625,-44
7626,-44
7627,-43
7628,-42
7629,-41
7630,-39
7631,-37
7632,-36
7633,-34
7634,-31
7635,-29
7636,-27
7637,-24
7638,-21
7639,-19
7640,-16
7641,-13
7642,-11
7643,-8
7644,-5
7645,-2
7646,0
7647,2
7648,5
7649,8
7650,11
7651,13
7652,16
7653,19
7654,23
7655,26
7656,29
7657,32
7658,36
7659,40
7660,43
7661,47
7662,51
7663,56
7664,60
7665,65
7666,69
7667,74
7668,79
7669,85
7670,90
7671,95
7672,101
7673,107
7674,113
7675,119
7676,125
7677,131
7678,137
7679,143
7680,149
7681,156
7682,162
7683,168
7684,174
7685,181
7686,187
7687,193
7688,199
7689,205
7690,211
7691,217
7692,222
7693,228
7694,233
7695,237
7696,242
7697,246
7698,249
7699,252
7700,255
7701,257
7702,259
7703,260
7704,260
7705,260
7706,259
7707,258
7708,255
7709,252
7710,249
7711,245
7712,241
7713,236
7714,230
7715,224
7716,218
7717,211
7718,204
7719,197
7720,189
7721,181
7722,173
7723,165
7724,157
7725,148
7726,140
7727,131
7728,122
7729,113
7730,104
7731,96
7732,87
7733,78
7734,69
7735,61
7736,52
7737,44
7738,36
7739,28
7740,20
7741,13
7742,6
7743,0
7744,-6
7745,-13
7746,-18
7747,-24
7748,-29
7749,-33
7750,-38
7751,-41
7752,-45
7753,-48
7754,-51
7755,-53
7756,-55
7757,-57
7758,-58
7759,-59
7760,-60
7761,-60
7762,-61
7763,-61
7764,-60
7765,-60
7766,-59
7767,-58
7768,-57
7769,-56
7770,-55
7771,-54
7772,-52
7773,-51
7774,-50
7775,-48
7776,-47
7777,-45
7778,-44
7779,-42
7780,-41
7781,-39
7782,-38
7783,-37
7784,-36
7785,-35
7786,-34
7787,-33
7788,-33
7789,-32
7790,-32
7791,-31
7792,-31
7793,-31
7794,-31
7795,-31
7796,-31
7797,-31
7798,-32
7799,-32
7800,-33
7801,-33
7802,-34
7803,-35
7804,-35
7805,-36
7806,-37
7807,-38
7808,-39
7809,-40
7810,-41
7811,-42
7812,-43
7813,-44
7814,-45
7815,-46
7816,-47
7817,-48
7818,-49
7819,-49
7820,-50
7821,-51
7822,-52
7823,-52
7824,-53
7825,-54
7826,-54
7827,-55
7828,-55
7829,-56
7830,-56
7831,-57
7832,-57
7833,-57
7834,-58
7835,-58
7836,-58
7837,-58
7838,-58
7839,-58
7840,-58
7841,-58
7842,-58
7843,-58
7844,-58
7845,-58
7846,-58
7847,-58
7848,-58
7849,-58
7850,-58
7851,-58
7852,-58
7853,-58
7854,-57
7855,-57
7856,-57
7857,-57
7858,-57
7859,-57
7860,-57
7861,-58
7862,-58
7863,-58
7864,-58
7865,-58
7866,-58
7867,-59
7868,-59
7869,-59
7870,-59
7871,-60
7872,-60
7873,-60
7874,-61
7875,-61
7876,-62
7877,-62
7878,-62
7879,-63
7880,-63
7881,-64
7882,-64
7883,-64
7884,-64
7885,-65
7886,-65
7887,-65
7888,-65
7889,-65
7890,-65
7891,-65
7892,-65
7893,-65
7894,-65
7895,-64
7896,-64
7897,-64
7898,-63
7899,-63
7900,-62
7901,-61
7902,-60
7903,-60
7904,-59
7905,-58
7906,-57
7907,-56
7908,-54
7909,-53
7910,-52
7911,-51
7912,-50
7913,-48
7914,-47
7915,-46
7916,-45
7917,-44
7918,-43
7919,-42
7920,-41
7921,-40
7922,-39
7923,-38
7924,-37
7925,-37
7926,-36
7927,-36
7928,-36
7929,-35
7930,-35
7931,-35
7932,-35
7933,-36
7934,-36
7935,-37
7936,-37
7937,-38
7938,-39
7939,-40
7940,-41
7941,-43
7942,-44
7943,-45
7944,-46
7945,-47
7946,-48
7947,-49
7948,-49
7949,-49
7950,-49
7951,-49
7952,-49
7953,-49
7954,-48
7955,-47
7956,-46
7957,-46
7958,-45
7959,-45
7960,-45
7961,-45
7962,-46
7963,-48
7964,-50
7965,-53
7966,-56
7967,-59
7968,-62
7969,-65
7970,-67
7971,-68
7972,-69
7973,-69
7974,-69
7975,-69
7976,-69
7977,-70
7978,-73
7979,-76
7980,-81
7981,-86
7982,-89
7983,-90
7984,-86
7985,-79
7986,-65
7987,-43
7988,-13
7989,23
7990,64
7991,105
7992,145
7993,183
7994,226
7995,273
7996,323
7997,366
7998,385
7999,369
8000,312
8001,217
8002,105
8003,-3
8004,-89
8005,-137
8006,-150
8007,-138
8008,-116
8009,-98
8010,-88
8011,-86
8012,-85
8013,-82
8014,-77
8015,-73
8016,-71
8017,-74
8018,-80
8019,-87
8020,-94
8021,-98
8022,-100
8023,-100
8024,-98
8025,-95
8026,-91
8027,-86
8028,-81
8029,-77
8030,-73
8031,-71
8032,-68
8033,-67
8034,-65
8035,-64
8036,-64
8037,-63
8038,-63
8039,-62
8040,-62
8041,-61
8042,-61
8043,-60
8044,-58
8045,-57
8046,-55
8047,-53
8048,-51
8049,-48
8050,-45
8051,-42
8052,-39
8053,-35
8054,-32
8055,-28
8056,-24
8057,-20
8058,-17
8059,-13
8060,-9
8061,-5
8062,-1
8063,1
8064,5
8065,9
8066,12
8067,16
8068,19
8069,23
8070,27
8071,30
8072,34
8073,37
8074,41
8075,45
8076,48
8077,52
8078,56
8079,60
8080,64
8081,68
8082,72
8083,76
8084,80
8085,85
8086,89
8087,93
8088,98
8089,103
8090,110
8091,117
8092,124
8093,131
8094,139
8095,146
8096,154
8097,161
8098,166
8099,171
8100,174
8101,177
8102,179
8103,181
8104,182
8105,184
8106,186
8107,188
8108,189
8109,191
8110,197
8111,212
8112,234
8113,259
8114,276
8115,272
8116,246
8117,209
8118,176
8119,167
8120,188
8121,228
8122,272
8123,302
8124,313
8125,309
8126,298
8127,288
8128,281
8129,274
8130,267
8131,258
8132,247
8133,236
8134,224
8135,214
8136,205
8137,196
8138,188
8139,179
8140,171
8141,162
8142,152
8143,143
8144,133
8145,123
8146,112
8147,102
8148,93
8149,84
8150,76
8151,68
8152,60
8153,53
8154,46
8155,39
8156,32
8157,26
8158,20
8159,13
8160,7
8161,2
8162,-3
8163,-9
8164,-14
8165,-19
8166,-24
8167,-29
8168,-33
8169,-37
8170,-41
8171,-45
8172,-48
8173,-51
8174,-53
8175,-56
8176,-58
8177,-59
8178,-61
8179,-62
8180,-63
8181,-63
8182,-64
8183,-64
8184,-64
8185,-64
8186,-64
8187,-64
8188,-63
8189,-63
8190,-62
8191,-61
8192,-61
8193,-60
8194,-59
8195,-58
8196,-57
8197,-56
8198,-55
8199,-55
8200,-54
8201,-53
8202,-52
8203,-52
8204,-51
8205,-50
8206,-50
8207,-49
8208,-49
8209,-48
8210,-48
8211,-48
8212,-47
8213,-47
8214,-47
8215,-47
8216,-47
8217,-47
8218,-47
8219,-47
8220,-47
8221,-47
8222,-47
8223,-48
8224,-48
8225,-48
8226,-48
8227,-48
8228,-49
8229,-49
8230,-49
8231,-49
8232,-50
8233,-50
8234,-50
8235,-50
8236,-50
8237,-50
8238,-51
8239,-51
8240,-51
8241,-51
8242,-51
8243,-51
8244,-51
8245,-51
8246,-51
8247,-51
8248,-51
8249,-51
8250,-51
8251,-51
8252,-51
8253,-51
8254,-51
8255,-52
8256,-52
8257,-52
8258,-52
8259,-52
8260,-52
8261,-52
8262,-52
8263,-52
8264,-53
8265,-53
8266,-53
8267,-53
8268,-54
8269,-54
8270,-54
8271,-55
8272,-55
8273,-55
8274,-56
8275,-56
8276,-56
8277,-57
8278,-57
8279,-57
8280,-58
8281,-58
8282,-58
8283,-58
8284,-59
8285,-59
8286,-59
8287,-59
8288,-59
8289,-59
8290,-59
8291,-59
8292,-59
8293,-58
8294,-58
8295,-58
8296,-57
8297,-57
8298,-56
8299,-55
8300,-55
8301,-54
8302,-53
8303,-52
8304,-51
8305,-50
8306,-49
8307,-47
8308,-46
8309,-45
8310,-44
8311,-42
8312,-41
8313,-39
8314,-38
8315,-37
8316,-35
8317,-34
8318,-33
8319,-32
8320,-31
8321,-30
8322,-29
8323,-28
8324,-27
8325,-26
8326,-25
8327,-25
8328,-25
8329,-24
8330,-24
8331,-24
8332,-24
8333,-25
8334,-25
8335,-26
8336,-26
8337,-27
8338,-28
8339,-29
8340,-30
8341,-31
8342,-33
8343,-34
8344,-35
8345,-36
8346,-36
8347,-37
8348,-38
8349,-38
8350,-38
8351,-38
8352,-38
8353,-38
8354,-37
8355,-37
8356,-37
8357,-37
8358,-37
8359,-38
8360,-39
8361,-41
8362,-43
8363,-45
8364,-48
8365,-52
8366,-57
8367,-61
8368,-66
8369,-70
8370,-74
8371,-77
8372,-78
8373,-78
8374,-77
8375,-75
8376,-72
8377,-70
8378,-69
8379,-68
8380,-69
8381,-70
8382,-71
8383,-72
8384,-69
8385,-63
8386,-51
8387,-32
8388,-5
8389,29
8390,72
8391,118
8392,164
8393,207
8394,250
8395,294
8396,338
8397,378
8398,401
8399,395
8400,358
8401,288
8402,197
8403,98
8404,3
8405,-74
8406,-125
8407,-149
8408,-150
8409,-138
8410,-123
8411,-112
8412,-106
8413,-99
8414,-91
8415,-82
8416,-74
8417,-69
8418,-68
8419,-70
8420,-74
8421,-77
8422,-79
8423,-80
8424,-79
8425,-76
8426,-72
8427,-67
8428,-62
8429,-57
8430,-52
8431,-48
8432,-46
8433,-44
8434,-43
8435,-43
8436,-44
8437,-45
8438,-47
8439,-49
8440,-51
8441,-52
8442,-53
8443,-53
8444,-53
8445,-53
8446,-52
8447,-47
8448,-40
8449,-31
8450,-26
8451,-30
8452,-44
8453,-60
8454,-72
8455,-70
8456,-54
8457,-34
8458,-15
8459,-6
8460,-7
8461,-12
8462,-17
8463,-19
8464,-17
8465,-15
8466,-12
8467,-10
8468,-7
8469,-4
8470,-1
8471,1
8472,4
8473,7
8474,11
8475,14
8476,17
8477,21
8478,25
8479,28
8480,33
8481,37
8482,41
8483,46
8484,51
8485,56
8486,62
8487,67
8488,73
8489,79
8490,85
8491,91
8492,98
8493,105
8494,111
8495,118
8496,125
8497,132
8498,139
8499,146
8500,153
8501,160
8502,167
8503,173
8504,180
8505,187
8506,193
8507,199
8508,205
8509,211
8510,216
8511,221
8512,225
8513,230
8514,234
8515,237
8516,240
8517,242
8518,244
8519,246
8520,247
8521,247
8522,247
8523,246
8524,245
8525,243
8526,241
8527,238
8528,235
8529,231
8530,226
8531,222
8532,216
8533,210
8534,204
8535,197
8536,190
8537,183
8538,175
8539,167
8540,159
8541,150
8542,141
8543,132
8544,123
8545,114
8546,105
8547,96
8548,87
8549,77
8550,68
8551,59
8552,50
8553,42
8554,33
8555,25
8556,17
8557,9
8558,1
8559,-5
8560,-12
8561,-18
8562,-24
8563,-30
8564,-36
8565,-41
8566,-46
8567,-50
8568,-54
8569,-58
8570,-61
8571,-64
8572,-66
8573,-69
8574,-71
8575,-72
8576,-73
8577,-74
8578,-75
8579,-75
8580,-76
8581,-76
8582,-75
8583,-75
8584,-74
8585,-74
8586,-73
8587,-72
8588,-71
8589,-69
8590,-68
8591,-67
8592,-66
8593,-64
8594,-63
8595,-61
8596,-60
8597,-59
8598,-58
8599,-56
8600,-55
8601,-54
8602,-53
8603,-52
8604,-51
8605,-50
8606,-50
8607,-49
8608,-48
8609,-48
8610,-47
8611,-47
8612,-47
8613,-46
8614,-46
8615,-46
8616,-46
8617,-46
8618,-46
8619,-46
8620,-47
8621,-47
8622,-47
8623,-47
8624,-48
8625,-48
8626,-48
8627,-49
8628,-49
8629,-50
8630,-50
8631,-50
8632,-51
8633,-51
8634,-51
8635,-52
8636,-52
8637,-52
8638,-53
8639,-53
8640,-53
8641,-54
8642,-54
8643,-54
8644,-54
8645,-55
8646,-55
8647,-55
8648,-56
8649,-56
8650,-56
8651,-56
8652,-57
8653,-57
8654,-57
8655,-58
8656,-58
8657,-58
8658,-59
8659,-59
8660,-59
8661,-60
8662,-60
8663,-61
8664,-61
8665,-61
8666,-62
8667,-62
8668,-63
8669,-63
8670,-64
8671,-65
8672,-65
8673,-66
8674,-66
8675,-67
8676,-67
8677,-68
8678,-68
8679,-68
8680,-69
8681,-69
8682,-70
8683,-70
8684,-70
8685,-70
8686,-70
8687,-70
8688,-70
8689,-70
8690,-70
8691,-70
8692,-70
8693,-69
8694,-69
8695,-68
8696,-68
8697,-67
8698,-66
8699,-65
8700,-64
8701,-63
8702,-62
8703,-62
8704,-61
8705,-60
8706,-59
8707,-58
8708,-57
8709,-56
8710,-55
8711,-54
8712,-53
8713,-52
8714,-51
8715,-50
8716,-49
8717,-48
8718,-47
8719,-46
8720,-44
8721,-43
8722,-42
8723,-41
8724,-39
8725,-38
8726,-38
8727,-37
8728,-36
8729,-36
8730,-36
8731,-36
8732,-36
8733,-36
8734,-37
8735,-39
8736,-40
8737,-42
8738,-44
8739,-46
8740,-48
8741,-50
8742,-52
8743,-54
8744,-55
8745,-57
8746,-58
8747,-59
8748,-60
8749,-61
8750,-61
8751,-61
8752,-61
8753,-61
8754,-61
8755,-61
8756,-61
8757,-61
8758,-62
8759,-63
8760,-64
8761,-66
8762,-68
8763,-70
8764,-72
8765,-73
8766,-73
8767,-72
8768,-70
8769,-66
8770,-63
8771,-59
8772,-57
8773,-56
8774,-58
8775,-62
8776,-68
8777,-75
8778,-81
8779,-85
8780,-85
8781,-78
8782,-61
8783,-35
8784,-2
8785,36
8786,78
8787,125
8788,182
8789,248
8790,314
8791,367
8792,389
8793,375
8794,327
8795,260
8796,191
8797,129
8798,76
8799,28
8800,-16
8801,-57
8802,-91
8803,-114
8804,-125
8805,-125
8806,-119
8807,-107
8808,-93
8809,-79
8810,-68
8811,-60
8812,-55
8813,-54
8814,-55
8815,-58
8816,-62
8817,-65
8818,-67
8819,-67
8820,-66
8821,-64
8822,-61
8823,-58
8824,-54
8825,-51
8826,-49
8827,-48
8828,-47
8829,-47
8830,-48
8831,-49
8832,-50
8833,-52
8834,-53
8835,-54
8836,-55
8837,-56
8838,-56
8839,-57
8840,-56
8841,-56
8842,-55
8843,-54
8844,-53
8845,-51
8846,-49
8847,-47
8848,-45
8849,-42
8850,-40
8851,-37
8852,-34
8853,-32
8854,-29
8855,-26
8856,-23
8857,-21
8858,-18
8859,-15
8860,-12
8861,-9
8862,-7
8863,-4
8864,-1
8865,1
8866,5
8867,8
8868,11
8869,15
8870,19
8871,23
8872,27
8873,31
8874,35
8875,40
8876,45
8877,49
8878,54
8879,60
8880,65
8881,71
8882,76
8883,82
8884,88
8885,95
8886,101
8887,107
8888,114
8889,121
8890,127
8891,134
8892,141
8893,148
8894,155
8895,161
8896,168
8897,175
8898,181
8899,187
8900,194
8901,199
8902,205
8903,211
8904,216
8905,221
8906,225
8907,229
8908,233
8909,236
8910,239
8911,242
8912,244
8913,245
8914,246
8915,247
8916,247
8917,246
8918,245
8919,244
8920,242
8921,239
8922,236
8923,233
8924,229
8925,224
8926,219
8927,214
8928,208
8929,202
8930,195
8931,188
8932,181
8933,173
8934,165
8935,157
8936,149
8937,141
8938,132
8939,124
8940,115
8941,106
8942,97
8943,89
8944,80
8945,71
8946,63
8947,55
8948,46
8949,38
8950,31
8951,23
8952,16
8953,9
8954,2
8955,-3
8956,-9
8957,-15
8958,-20
8959,-25
8960,-30
8961,-35
8962,-39
8963,-42
8964,-46
8965,-49
8966,-51
8967,-54
8968,-56
8969,-58
8970,-59
8971,-60
8972,-61
8973,-62
8974,-62
8975,-62
8976,-62
8977,-62
8978,-62
8979,-61
8980,-61
8981,-60
8982,-59
8983,-58
8984,-57
8985,-56
8986,-54
8987,-53
8988,-52
8989,-50
8990,-49
8991,-48
8992,-47
8993,-45
8994,-44
8995,-43
8996,-42
8997,-41
8998,-40
8999,-39
9000,-39
9001,-38
9002,-37
9003,-37
9004,-36
9005,-36
9006,-36
9007,-35
9008,-35
9009,-35
9010,-35
9011,-35
9012,-35
9013,-36
9014,-36
9015,-36
9016,-37
9017,-37
9018,-38
9019,-38
9020,-39
9021,-39
9022,-40
9023,-40
9024,-41
9025,-42
9026,-42
9027,-43
9028,-43
9029,-44
9030,-44
9031,-45
9032,-45
9033,-46
9034,-46
9035,-47
9036,-47
9037,-47
9038,-48
9039,-48
9040,-48
9041,-48
9042,-48
9043,-49
9044,-49
9045,-49
9046,-49
9047,-49
9048,-49
9049,-49
9050,-49
9051,-49
9052,-48
9053,-48
9054,-48
9055,-48
9056,-48
9057,-48
9058,-48
9059,-48
9060,-48
9061,-48
9062,-48
9063,-48
9064,-48
9065,-48
9066,-48
9067,-48
9068,-48
9069,-48
9070,-48
9071,-48
9072,-49
9073,-49
9074,-49
9075,-49
9076,-50
9077,-50
9078,-50
9079,-51
9080,-51
9081,-51
9082,-52
9083,-52
9084,-52
9085,-52
9086,-53
9087,-53
9088,-53
9089,-53
9090,-53
9091,-53
9092,-53
9093,-53
9094,-53
9095,-53
9096,-52
9097,-52
9098,-52
9099,-51
9100,-50
9101,-50
9102,-49
9103,-48
9104,-48
9105,-47
9106,-46
9107,-45
9108,-44
9109,-43
9110,-42
9111,-41
9112,-40
9113,-39
9114,-38
9115,-37
9116,-36
9117,-35
9118,-34
9119,-33
9120,-32
9121,-31
9122,-31
9123,-30
9124,-30
9125,-29
9126,-29
9127,-29
9128,-29
9129,-29
9130,-29
9131,-29
9132,-30
9133,-30
9134,-31
9135,-32
9136,-33
9137,-34
9138,-35
9139,-36
9140,-37
9141,-38
9142,-39
9143,-41
9144,-41
9145,-42
9146,-43
9147,-44
9148,-44
9149,-44
9150,-45
9151,-45
9152,-45
9153,-45
9154,-45
9155,-45
9156,-46
9157,-46
9158,-47
9159,-48
9160,-50
9161,-52
9162,-54
9163,-57
9164,-60
9165,-63
9166,-67
9167,-70
9168,-72
9169,-74
9170,-74
9171,-74
9172,-73
9173,-72
9174,-70
9175,-66
9176,-61
9177,-55
9178,-35
9179,-26
9180,-68
9181,-107
9182,-72
9183,-25
9184,-26
9185,-37
9186,-28
9187,-11
9188,13
9189,48
9190,93
9191,142
9192,193
9193,248
9194,301
9195,348
9196,377
9197,372
9198,331
9199,260
9200,173
9201,90
9202,20
9203,-33
9204,-74
9205,-107
9206,-132
9207,-147
9208,-151
9209,-144
9210,-130
9211,-112
9212,-94
9213,-79
9214,-67
9215,-60
9216,-57
9217,-57
9218,-60
9219,-64
9220,-68
9221,-70
9222,-71
9223,-71
9224,-69
9225,-66
9226,-62
9227,-59
9228,-56
9229,-54
9230,-52
9231,-52
9232,-52
9233,-53
9234,-54
9235,-56
9236,-57
9237,-58
9238,-60
9239,-61
9240,-62
9241,-62
9242,-63
9243,-63
9244,-62
9245,-61
9246,-61
9247,-59
9248,-58
9249,-56
9250,-54
9251,-52
9252,-50
9253,-48
9254,-45
9255,-43
9256,-40
9257,-38
9258,-36
9259,-33
9260,-31
9261,-29
9262,-26
9263,-24
9264,-22
9265,-19
9266,-17
9267,-14
9268,-11
9269,-9
9270,-6
9271,-3
9272,0
9273,3
9274,6
9275,10
9276,14
9277,18
9278,22
9279,26
9280,31
9281,36
9282,41
9283,46
9284,51
9285,57
9286,62
9287,68
9288,74
9289,81
9290,87
9291,93
9292,100
9293,107
9294,114
9295,121
9296,128
9297,134
9298,141
9299,148
9300,155
9301,162
9302,169
9303,175
9304,181
9305,188
9306,193
9307,199
9308,204
9309,210
9310,214
9311,219
9312,223
9313,226
9314,229
9315,232
9316,234
9317,236
9318,237
9319,238
9320,238
9321,238
9322,237
9323,235
9324,233
9325,231
9326,228
9327,225
9328,221
9329,216
9330,211
9331,206
9332,200
9333,194
9334,188
9335,181
9336,173
9337,166
9338,158
9339,150
9340,142
9341,134
9342,125
9343,116
9344,108
9345,99
9346,90
9347,82
9348,73
9349,65
9350,56
9351,48
9352,40
9353,32
9354,25
9355,17
9356,10
9357,4
9358,-2
9359,-8
9360,-14
9361,-19
9362,-24
9363,-29
9364,-33
9365,-37
9366,-41
9367,-44
9368,-47
9369,-50
9370,-52
9371,-54
9372,-55
9373,-57
9374,-57
9375,-58
9376,-59
9377,-59
9378,-59
9379,-58
9380,-58
9381,-57
9382,-56
9383,-55
9384,-54
9385,-53
9386,-52
9387,-50
9388,-49
9389,-47
9390,-46
9391,-44
9392,-43
9393,-41
9394,-40
9395,-38
9396,-37
9397,-36
9398,-35
9399,-33
9400,-32
9401,-31
9402,-31
9403,-30
9404,-29
9405,-29
9406,-28
9407,-28
9408,-28
9409,-28
9410,-28
9411,-28
9412,-28
9413,-28
9414,-29
9415,-29
9416,-30
9417,-30
9418,-31
9419,-31
9420,-32
9421,-33
9422,-34
9423,-34
9424,-35
9425,-36
9426,-37
9427,-38
9428,-38
9429,-39
9430,-40
9431,-41
9432,-41
9433,-42
9434,-43
9435,-43
9436,-44
9437,-45
9438,-45
9439,-46
9440,-46
9441,-46
9442,-47
9443,-47
9444,-47
9445,-48
9446,-48
9447,-48
9448,-48
9449,-48
9450,-48
9451,-48
9452,-49
9453,-49
9454,-49
9455,-49
9456,-49
9457,-49
9458,-49
9459,-49
9460,-49
9461,-49
9462,-49
9463,-49
9464,-50
9465,-50
9466,-50
9467,-50
9468,-50
9469,-51
9470,-51
9471,-51
9472,-52
9473,-52
9474,-52
9475,-53
9476,-53
9477,-54
9478,-54
9479,-55
9480,-55
9481,-56
9482,-56
9483,-57
9484,-57
9485,-58
9486,-58
9487,-58
9488,-59
9489,-59
9490,-59
9491,-60
9492,-60
9493,-60
9494,-60
9495,-60
9496,-60
9497,-60
9498,-59
9499,-59
9500,-59
9501,-58
9502,-58
9503,-57
9504,-56
9505,-55
9506,-54
9507,-53
9508,-52
9509,-50
9510,-49
9511,-47
9512,-46
9513,-44
9514,-43
9515,-41
9516,-39
9517,-38
9518,-36
9519,-34
9520,-33
9521,-31
9522,-30
9523,-28
9524,-27
9525,-25
9526,-24
9527,-22
9528,-21
9529,-20
9530,-18
9531,-17
9532,-15
9533,-14
9534,-12
9535,-10
9536,-9
9537,-7
9538,-6
9539,-4
9540,-3
9541,-3
9542,-2
9543,-2
9544,-2
9545,-2
9546,-2
9547,-3
9548,-5
9549,-7
9550,-9
9551,-12
9552,-15
9553,-18
9554,-21
9555,-24
9556,-27
9557,-30
9558,-33
9559,-35
9560,-38
9561,-40
9562,-42
9563,-44
9564,-46
9565,-47
9566,-48
9567,-49
9568,-50
9569,-51
9570,-53
9571,-54
9572,-56
9573,-59
9574,-61
9575,-64
9576,-66
9577,-68
9578,-69
9579,-68
9580,-67
9581,-64
9582,-61
9583,-58
9584,-57
9585,-57
9586,-60
9587,-65
9588,-74
9589,-85
9590,-97
9591,-108
9592,-116
9593,-117
9594,-111
9595,-96
9596,-68
9597,-29
9598,20
9599,75
9600,130
9601,184
9602,237
9603,292
9604,346
9605,394
9606,423
9607,419
9608,378
9609,301
9610,197
9611,85
9612,-21
9613,-107
9614,-161
9615,-182
9616,-176
9617,-157
9618,-135
9619,-118
9620,-107
9621,-96
9622,-84
9623,-70
9624,-58
9625,-50
9626,-48
9627,-49
9628,-53
9629,-58
9630,-61
9631,-63
9632,-63
9633,-61
9634,-59
9635,-55
9636,-51
9637,-47
9638,-44
9639,-42
9640,-40
9641,-40
9642,-40
9643,-41
9644,-42
9645,-44
9646,-46
9647,-48
9648,-50
9649,-51
9650,-53
9651,-54
9652,-55
9653,-56
9654,-56
9655,-56
9656,-56
9657,-56
9658,-55
9659,-54
9660,-53
9661,-52
9662,-50
9663,-49
9664,-47
9665,-45
9666,-44
9667,-42
9668,-40
9669,-38
9670,-36
9671,-34
9672,-32
9673,-30
9674,-28
9675,-26
9676,-23
9677,-21
9678,-18
9679,-16
9680,-13
9681,-9
9682,-6
9683,-3
9684,0
9685,4
9686,8
9687,12
9688,17
9689,21
9690,26
9691,31
9692,36
9693,42
9694,47
9695,53
9696,59
9697,65
9698,71
9699,78
9700,84
9701,91
9702,97
9703,104
9704,111
9705,117
9706,124
9707,131
9708,137
9709,143
9710,149
9711,155
9712,161
9713,166
9714,171
9715,176
9716,181
9717,185
9718,189
9719,193
9720,197
9721,200
9722,204
9723,207
9724,210
9725,214
9726,217
9727,220
9728,223
9729,227
9730,229
9731,232
9732,235
9733,236
9734,238
9735,239
9736,239
9737,239
9738,237
9739,235
9740,232
9741,228
9742,223
9743,216
9744,209
9745,200
9746,191
9747,181
9748,170
9749,159
9750,147
9751,136
9752,124
9753,112
9754,101
9755,89
9756,78
9757,68
9758,58
9759,49
9760,40
9761,33
9762,26
9763,20
9764,14
9765,9
9766,4
9767,0
9768,-4
9769,-8
9770,-12
9771,-16
9772,-19
9773,-22
9774,-26
9775,-29
9776,-32
9777,-35
9778,-38
9779,-42
9780,-45
9781,-48
9782,-50
9783,-53
9784,-55
9785,-57
9786,-59
9787,-60
9788,-61
9789,-62
9790,-63
9791,-64
9792,-64
9793,-64
9794,-64
9795,-63
9796,-63
9797,-62
9798,-61
9799,-61
9800,-60
9801,-59
9802,-58
9803,-57
9804,-56
9805,-55
9806,-54
9807,-53
9808,-52
9809,-51
9810,-50
9811,-49
9812,-48
9813,-47
9814,-47
9815,-46
9816,-45
9817,-44
9818,-44
9819,-43
9820,-43
9821,-42
9822,-42
9823,-42
9824,-42
9825,-41
9826,-41
9827,-41
9828,-41
9829,-41
9830,-42
9831,-42
9832,-42
9833,-42
9834,-43
9835,-43
9836,-43
9837,-44
9838,-44
9839,-45
9840,-45
9841,-46
9842,-47
9843,-47
9844,-48
9845,-48
9846,-49
9847,-50
9848,-50
9849,-51
9850,-52
9851,-52
9852,-53
9853,-54
9854,-54
9855,-55
9856,-55
9857,-56
9858,-56
9859,-57
9860,-57
9861,-58
9862,-58
9863,-58
9864,-58
9865,-59
9866,-59
9867,-59
9868,-59
9869,-59
9870,-59
9871,-60
9872,-60
9873,-60
9874,-60
9875,-60
9876,-60
9877,-60
9878,-60
9879,-60
9880,-60
9881,-60
9882,-60
9883,-60
9884,-60
9885,-60
9886,-60
9887,-60
9888,-60
9889,-60
9890,-60
9891,-60
9892,-61
9893,-61
9894,-61
9895,-61
9896,-62
9897,-62
9898,-62
9899,-63
9900,-63
9901,-63
9902,-64
9903,-64
9904,-64
9905,-64
9906,-64
9907,-65
9908,-65
9909,-65
9910,-65
9911,-65
9912,-65
9913,-64
9914,-64
9915,-64
9916,-63
9917,-63
9918,-62
9919,-61
9920,-61
9921,-60
9922,-59
9923,-58
9924,-56
9925,-55
9926,-54
9927,-52
9928,-51
9929,-50
9930,-48
9931,-46
9932,-45
9933,-43
9934,-42
9935,-40
9936,-39
9937,-37
9938,-36
9939,-34
9940,-33
9941,-32
9942,-31
9943,-30
9944,-29
9945,-28
9946,-27
9947,-27
9948,-26
9949,-26
9950,-26
9951,-26
9952,-26
9953,-27
9954,-27
9955,-28
9956,-29
9957,-30
9958,-31
9959,-32
9960,-33
9961,-34
9962,-35
9963,-36
9964,-37
9965,-38
9966,-39
9967,-40
9968,-41
9969,-41
9970,-42
9971,-42
9972,-42
9973,-42
9974,-43
9975,-43
9976,-44
9977,-45
9978,-46
9979,-47
9980,-49
9981,-51
9982,-53
9983,-56
9984,-60
9985,-63
9986,-67
9987,-70
9988,-73
9989,-75
9990,-75
9991,-74
9992,-71
9993,-67
9994,-63
9995,-58
9996,-54
9997,-52
9998,-52
9999,-54
10000,-57
10001,-62
10002,-65
10003,-65
10004,-61
10005,-50
10006,-31
10007,-3
10008,33
10009,77
10010,127
10011,179
10012,229
10013,274
10014,310
10015,333
10016,340
10017,332
10018,307
10019,267
10020,215
10021,154
10022,91
10023,29
10024,-27
10025,-75
10026,-111
10027,-134
10028,-145
10029,-144
10030,-134
10031,-119
10032,-100
10033,-81
10034,-65
10035,-52
10036,-43
10037,-38
10038,-36
10039,-37
10040,-39
10041,-40
10042,-41
10043,-40
10044,-38
10045,-35
10046,-31
10047,-27
10048,-23
10049,-20
10050,-17
10051,-16
10052,-15
10053,-15
10054,-16
10055,-16
10056,-17
10057,-18
10058,-19
10059,-20
10060,-20
10061,-20
10062,-20
10063,-20
10064,-19
10065,-18
10066,-16
10067,-15
10068,-13
10069,-11
10070,-8
10071,-5
10072,-3
10073,0
10074,2
10075,5
10076,8
10077,11
10078,14
10079,17
10080,19
10081,22
10082,25
10083,28
10084,31
10085,34
10086,37
10087,40
10088,43
10089,46
10090,49
10091,53
10092,56
10093,60
10094,64
10095,67
10096,71
10097,75
10098,79
10099,83
10100,88
10101,92
10102,97
10103,101
10104,106
10105,111
10106,116
10107,121
10108,126
10109,131
10110,136
10111,141
10112,147
10113,152
10114,157
10115,162
10116,168
10117,173
10118,178
10119,182
10120,187
10121,191
10122,195
10123,199
10124,203
10125,206
10126,209
10127,212
10128,215
10129,217
10130,219
10131,221
10132,224
10133,226
10134,228
10135,230
10136,232
10137,234
10138,236
10139,238
10140,240
10141,241
10142,243
10143,243
10144,244
10145,243
10146,243
10147,241
10148,239
10149,236
10150,232
10151,227
10152,221
10153,214
10154,206
10155,197
10156,188
10157,178
10158,168
10159,157
10160,146
10161,135
10162,124
10163,113
10164,102
10165,91
10166,80
10167,70
10168,61
10169,51
10170,43
10171,35
10172,27
10173,20
10174,13
10175,6
10176,0
10177,-5
10178,-11
10179,-17
10180,-22
10181,-27
10182,-31
10183,-36
10184,-40
10185,-44
10186,-48
10187,-52
10188,-55
10189,-58
10190,-61
10191,-63
10192,-65
10193,-66
10194,-68
10195,-68
10196,-69
10197,-69
10198,-69
10199,-69
10200,-68
10201,-67
10202,-66
10203,-65
10204,-64
10205,-62
10206,-60
10207,-59
10208,-57
10209,-55
10210,-53
10211,-51
10212,-49
10213,-47
10214,-45
10215,-43
10216,-42
10217,-40
10218,-38
10219,-36
10220,-35
10221,-34
10222,-32
10223,-31
10224,-30
10225,-29
10226,-29
10227,-28
10228,-28
10229,-27
10230,-27
10231,-27
10232,-27
10233,-27
10234,-28
10235,-28
10236,-29
10237,-30
10238,-30
10239,-31
10240,-32
10241,-33
10242,-35
10243,-36
10244,-37
10245,-38
10246,-40
10247,-41
10248,-42
10249,-44
10250,-45
10251,-47
10252,-48
10253,-49
10254,-51
10255,-52
10256,-53
10257,-54
10258,-56
10259,-57
10260,-58
10261,-59
10262,-60
10263,-61
10264,-61
10265,-62
10266,-63
10267,-63
10268,-64
10269,-64
10270,-65
10271,-65
10272,-65
10273,-66
10274,-66
10275,-66
10276,-66
10277,-66
10278,-66
10279,-66
10280,-66
10281,-65
10282,-65
10283,-65
10284,-65
10285,-65
10286,-64
10287,-64
10288,-64
10289,-64
10290,-63
10291,-63
10292,-63
10293,-62
10294,-62
10295,-62
10296,-62
10297,-62
10298,-62
10299,-62
10300,-61
10301,-61
10302,-61
10303,-61
10304,-61
10305,-61
10306,-62
10307,-62
10308,-62
10309,-62
10310,-62
10311,-62
10312,-62
10313,-63
10314,-63
10315,-63
10316,-63
10317,-63
10318,-63
10319,-64
10320,-64
10321,-64
10322,-64
10323,-64
10324,-64
10325,-64
10326,-64
10327,-64
10328,-63
10329,-63
10330,-63
10331,-63
10332,-62
10333,-62
10334,-61
10335,-61
10336,-60
10337,-60
10338,-59
10339,-58
10340,-58
10341,-57
10342,-56
10343,-56
10344,-55
10345,-55
10346,-54
10347,-53
10348,-53
10349,-52
10350,-52
10351,-51
10352,-51
10353,-51
10354,-50
10355,-50
10356,-50
10357,-50
10358,-50
10359,-51
10360,-51
10361,-52
10362,-52
10363,-53
10364,-54
10365,-55
10366,-56
10367,-57
10368,-58
10369,-59
10370,-61
10371,-62
10372,-63
10373,-64
10374,-65
10375,-66
10376,-67
10377,-68
10378,-69
10379,-69
10380,-69
10381,-70
10382,-70
10383,-69
10384,-69
10385,-69
10386,-69
10387,-69
10388,-69
10389,-70
10390,-70
10391,-71
10392,-72
10393,-73
10394,-75
10395,-76
10396,-78
10397,-80
10398,-83
10399,-85
10400,-87
10401,-89
10402,-90
10403,-89
10404,-88
10405,-84
10406,-80
10407,-74
10408,-67
10409,-59
10410,-53
10411,-48
10412,-45
10413,-43
10414,-39
10415,-32
10416,-24
10417,-15
10418,-10
10419,-8
10420,-4
10421,8
10422,40
10423,92
10424,163
10425,243
10426,318
10427,373
10428,393
10429,372
10430,314
10431,233
10432,147
10433,71
10434,10
10435,-33
10436,-68
10437,-95
10438,-114
10439,-124
10440,-122
10441,-112
10442,-96
10443,-78
10444,-63
10445,-51
10446,-44
10447,-41
10448,-42
10449,-46
10450,-52
10451,-57
10452,-61
10453,-63
10454,-63
10455,-61
10456,-58
10457,-54
10458,-49
10459,-45
10460,-41
10461,-38
10462,-36
10463,-35
10464,-34
10465,-34
10466,-34
10467,-34
10468,-34
10469,-35
10470,-35
10471,-36
10472,-36
10473,-36
10474,-36
10475,-36
10476,-35
10477,-34
10478,-33
10479,-31
10480,-29
10481,-27
10482,-25
10483,-23
10484,-20
10485,-17
10486,-14
10487,-12
10488,-9
10489,-6
10490,-3
10491,0
10492,2
10493,5
10494,8
10495,11
10496,14
10497,17
10498,20
10499,23
10500,26
10501,29
10502,32
10503,35
10504,38
10505,42
10506,45
10507,48
10508,52
10509,55
10510,59
10511,62
10512,66
10513,70
10514,74
10515,78
10516,82
10517,86
10518,90
10519,95
10520,99
10521,104
10522,108
10523,113
10524,117
10525,122
10526,126
10527,130
10528,134
10529,138
10530,142
10531,146
10532,150
10533,154
10534,157
10535,161
10536,164
10537,167
10538,170
10539,174
10540,177
10541,180
10542,183
10543,187
10544,190
10545,193
10546,196
10547,199
10548,202
10549,205
10550,207
10551,208
10552,210
10553,211
10554,211
10555,210
10556,209
10557,207
10558,204
10559,201
10560,196
10561,190
10562,184
10563,177
10564,170
10565,162
10566,154
10567,145
10568,137
10569,127
10570,118
10571,109
10572,99
10573,90
10574,81
10575,72
10576,63
10577,55
10578,47
10579,39
10580,31
10581,24
10582,16
10583,9
10584,2
10585,-4
10586,-11
10587,-18
10588,-24
10589,-31
10590,-37
10591,-43
10592,-49
10593,-54
10594,-60
10595,-65
10596,-70
10597,-74
10598,-78
10599,-82
10600,-86
10601,-89
10602,-91
10603,-94
10604,-95
10605,-97
10606,-98
10607,-99
10608,-100
10609,-100
10610,-100
10611,-100
10612,-99
10613,-99
10614,-98
10615,-97
10616,-95
10617,-94
10618,-92
10619,-90
10620,-88
10621,-86
10622,-84
10623,-82
10624,-80
10625,-77
10626,-75
10627,-72
10628,-70
10629,-68
10630,-65
10631,-63
10632,-61
10633,-58
10634,-56
10635,-54
10636,-52
10637,-50
10638,-48
10639,-46
10640,-45
10641,-43
10642,-42
10643,-40
10644,-39
10645,-38
10646,-37
10647,-36
10648,-35
10649,-34
10650,-33
10651,-32
10652,-32
10653,-31
10654,-31
10655,-31
10656,-30
10657,-30
10658,-30
10659,-30
10660,-30
10661,-30
10662,-30
10663,-31
10664,-31
10665,-31
10666,-32
10667,-32
10668,-32
10669,-33
10670,-33
10671,-34
10672,-34
10673,-35
10674,-35
10675,-36
10676,-36
10677,-37
10678,-37
10679,-38
10680,-38
10681,-39
10682,-40
10683,-40
10684,-41
10685,-41
10686,-42
10687,-43
10688,-43
10689,-44
10690,-44
10691,-45
10692,-46
10693,-46
10694,-47
10695,-47
10696,-48
10697,-49
10698,-49
10699,-50
10700,-50
10701,-51
10702,-52
10703,-52
10704,-53
10705,-53
10706,-54
10707,-54
10708,-55
10709,-55
10710,-56
10711,-56
10712,-56
10713,-57
10714,-57
10715,-57
10716,-57
10717,-57
10718,-57
10719,-57
10720,-57
10721,-57
10722,-57
10723,-56
10724,-56
10725,-56
10726,-55
10727,-54
10728,-54
10729,-53
10730,-52
10731,-51
10732,-50
10733,-49
10734,-48
10735,-47
10736,-46
10737,-45
10738,-43
10739,-42
10740,-41
10741,-40
10742,-38
10743,-37
10744,-36
10745,-34
10746,-33
10747,-32
10748,-31
10749,-30
10750,-29
10751,-28
10752,-27
10753,-26
10754,-26
10755,-25
10756,-25
10757,-25
10758,-24
10759,-24
10760,-25
10761,-25
10762,-25
10763,-26
10764,-26
10765,-27
10766,-28
10767,-29
10768,-31
10769,-32
10770,-33
10771,-35
10772,-37
10773,-38
10774,-40
10775,-41
10776,-43
10777,-44
10778,-46
10779,-47
10780,-48
10781,-48
10782,-49
10783,-49
10784,-49
10785,-49
10786,-49
10787,-49
10788,-48
10789,-48
10790,-48
10791,-48
10792,-48
10793,-49
10794,-50
10795,-52
10796,-54
10797,-56
10798,-58
10799,-60
10800,-61
10801,-61
10802,-60
10803,-58
10804,-55
10805,-52
10806,-49
10807,-48
10808,-48
10809,-51
10810,-57
10811,-64
10812,-72
10813,-79
10814,-84
10815,-83
10816,-74
10817,-57
10818,-29
10819,7
10820,54
10821,107
10822,162
10823,217
10824,266
10825,305
10826,330
10827,341
10828,338
10829,321
10830,288
10831,233
10832,158
10833,73
10834,-7
10835,-65
10836,-93
10837,-93
10838,-78
10839,-62
10840,-52
10841,-49
10842,-48
10843,-46
10844,-42
10845,-38
10846,-37
10847,-40
10848,-46
10849,-53
10850,-59
10851,-63
10852,-66
10853,-66
10854,-64
10855,-61
10856,-57
10857,-52
10858,-48
10859,-43
10860,-40
10861,-37
10862,-35
10863,-34
10864,-33
10865,-33
10866,-33
10867,-33
10868,-34
10869,-34
10870,-35
10871,-36
10872,-37
10873,-38
10874,-39
10875,-39
10876,-40
10877,-40
10878,-39
10879,-39
10880,-38
10881,-37
10882,-36
10883,-34
10884,-33
10885,-31
10886,-29
10887,-26
10888,-24
10889,-22
10890,-19
10891,-16
10892,-14
10893,-11
10894,-9
10895,-6
10896,-3
10897,0
10898,2
10899,5
10900,8
10901,12
10902,15
10903,19
10904,23
10905,27
10906,31
10907,35
10908,40
10909,45
10910,50
10911,55
10912,60
10913,66
10914,72
10915,78
10916,84
10917,90
10918,96
10919,103
10920,109
10921,116
10922,123
10923,130
10924,137
10925,143
10926,150
10927,157
10928,164
10929,171
10930,177
10931,184
10932,190
10933,197
10934,203
10935,208
10936,214
10937,219
10938,224
10939,229
10940,233
10941,237
10942,240
10943,243
10944,245
10945,248
10946,249
10947,250
10948,251
10949,251
10950,251
10951,250
10952,249
10953,248
10954,246
10955,243
10956,240
10957,237
10958,233
10959,228
10960,223
10961,218
10962,212
10963,206
10964,199
10965,192
10966,184
10967,175
10968,166
10969,157
10970,147
10971,137
10972,127
10973,116
10974,106
10975,95
10976,85
10977,75
10978,64
10979,54
10980,45
10981,35
10982,27
10983,19
10984,11
10985,4
10986,-2
10987,-8
10988,-14
10989,-19
10990,-24
10991,-29
10992,-33
10993,-37
10994,-41
10995,-44
10996,-48
10997,-51
10998,-54
10999,-57
11000,-60
11001,-63
11002,-65
11003,-68
11004,-70
11005,-72
11006,-74
11007,-76
11008,-77
11009,-78
11010,-79
11011,-79
11012,-80
11013,-80
11014,-80
11015,-79
11016,-79
11017,-78
11018,-77
11019,-76
11020,-74
11021,-73
11022,-72
11023,-70
11024,-69
11025,-67
11026,-66
11027,-64
11028,-63
11029,-61
11030,-60
11031,-58
11032,-57
11033,-55
11034,-54
11035,-53
11036,-52
11037,-51
11038,-50
11039,-49
11040,-48
11041,-47
11042,-46
11043,-46
11044,-45
11045,-45
11046,-44
11047,-44
11048,-44
11049,-44
11050,-44
11051,-44
11052,-44
11053,-44
11054,-44
11055,-44
11056,-45
11057,-45
11058,-45
11059,-46
11060,-46
11061,-47
11062,-47
11063,-48
11064,-48
11065,-49
11066,-49
11067,-50
11068,-51
11069,-51
11070,-52
11071,-52
11072,-53
11073,-53
11074,-54
11075,-54
11076,-54
11077,-55
11078,-55
11079,-55
11080,-56
11081,-56
11082,-56
11083,-57
11084,-57
11085,-57
11086,-57
11087,-57
11088,-57
11089,-58
11090,-58
11091,-58
11092,-58
11093,-58
11094,-58
11095,-58
11096,-58
11097,-58
11098,-58
11099,-59
11100,-59
11101,-59
11102,-59
11103,-59
11104,-59
11105,-60
11106,-60
11107,-60
11108,-60
11109,-60
11110,-61
11111,-61
11112,-61
11113,-61
11114,-61
11115,-61
11116,-61
11117,-61
11118,-62
11119,-62
11120,-61
11121,-61
11122,-61
11123,-61
11124,-61
11125,-60
11126,-60
11127,-60
11128,-59
11129,-58
11130,-58
11131,-57
11132,-56
11133,-55
11134,-54
11135,-53
11136,-52
11137,-51
11138,-50
11139,-48
11140,-47
11141,-46
11142,-44
11143,-43
11144,-42
11145,-40
11146,-39
11147,-37
11148,-36
11149,-35
11150,-33
11151,-32
11152,-31
11153,-30
11154,-29
11155,-28
11156,-27
11157,-27
11158,-26
11159,-26
11160,-25
11161,-25
11162,-25
11163,-25
11164,-26
11165,-26
11166,-26
11167,-27
11168,-28
11169,-29
11170,-30
11171,-31
11172,-33
11173,-34
11174,-35
11175,-36
11176,-38
11177,-39
11178,-40
11179,-40
11180,-41
11181,-41
11182,-42
11183,-42
11184,-42
11185,-42
11186,-41
11187,-41
11188,-41
11189,-41
11190,-41
11191,-42
11192,-42
11193,-44
11194,-45
11195,-47
11196,-50
11197,-53
11198,-56
11199,-60
11200,-64
11201,-68
11202,-71
11203,-74
11204,-75
11205,-76
11206,-75
11207,-73
11208,-69
11209,-64
11210,-59
11211,-55
11212,-51
11213,-48
11214,-46
11215,-43
11216,-40
11217,-35
11218,-26
11219,-11
11220,11
11221,40
11222,73
11223,107
11224,142
11225,181
11226,226
11227,276
11228,325
11229,359
11230,364
11231,336
11232,275
11233,190
11234,96
11235,5
11236,-73
11237,-127
11238,-152
11239,-149
11240,-124
11241,-94
11242,-70
11243,-55
11244,-50
11245,-48
11246,-45
11247,-42
11248,-40
11249,-41
11250,-45
11251,-51
11252,-56
11253,-59
11254,-60
11255,-60
11256,-58
11257,-56
11258,-52
11259,-49
11260,-46
11261,-44
11262,-42
11263,-42
11264,-42
11265,-42
11266,-44
11267,-45
11268,-47
11269,-48
11270,-50
11271,-51
11272,-53
11273,-54
11274,-54
11275,-55
11276,-55
11277,-55
11278,-54
11279,-54
11280,-52
11281,-51
11282,-49
11283,-47
11284,-45
11285,-43
11286,-41
11287,-38
11288,-35
11289,-33
11290,-30
11291,-27
11292,-24
11293,-21
11294,-19
11295,-16
11296,-13
11297,-10
11298,-7
11299,-4
11300,-1
11301,2
11302,5
11303,8
11304,12
11305,16
11306,19
11307,23
11308,27
11309,32
11310,36
11311,40
11312,45
11313,50
11314,55
11315,60
11316,65
11317,70
11318,76
11319,81
11320,87
11321,93
11322,99
11323,105
11324,111
11325,118
11326,124
11327,131
11328,137
11329,144
11330,150
11331,157
11332,163
11333,170
11334,176
11335,182
11336,189
11337,195
11338,201
11339,206
11340,212
11341,217
11342,222
11343,226
11344,231
11345,234
11346,238
11347,241
11348,244
11349,246
11350,248
11351,249
11352,250
11353,251
11354,251
11355,250
11356,249
11357,248
11358,245
11359,243
11360,240
11361,236
11362,232
11363,228
11364,223
11365,217
11366,211
11367,205
11368,198
11369,191
11370,184
11371,176
11372,168
11373,160
11374,152
11375,143
11376,135
11377,126
11378,117
11379,108
11380,99
11381,90
11382,82
11383,73
11384,64
11385,56
11386,47
11387,39
11388,31
11389,24
11390,16
11391,9
11392,3
11393,-3
11394,-9
11395,-15
11396,-20
11397,-25
11398,-30
11399,-34
11400,-38
11401,-42
11402,-45
11403,-48
11404,-50
11405,-53
11406,-54
11407,-56
11408,-57
11409,-58
11410,-59
11411,-59
11412,-59
11413,-59
11414,-59
11415,-58
11416,-58
11417,-57
11418,-56
11419,-55
11420,-53
11421,-52
11422,-51
11423,-50
11424,-48
11425,-47
11426,-45
11427,-44
11428,-43
11429,-41
11430,-40
11431,-39
11432,-38
11433,-37
11434,-36
11435,-35
11436,-34
11437,-34
11438,-33
11439,-32
11440,-32
11441,-32
11442,-32
11443,-32
11444,-32
11445,-32
11446,-32
11447,-32
11448,-32
11449,-33
11450,-33
11451,-34
11452,-34
11453,-35
11454,-35
11455,-36
11456,-37
11457,-37
11458,-38
11459,-39
11460,-39
11461,-40
11462,-40
11463,-41
11464,-42
11465,-42
11466,-43
11467,-43
11468,-44
11469,-44
11470,-45
11471,-45
11472,-45
11473,-46
11474,-46
11475,-46
11476,-47
11477,-47
11478,-47
11479,-47
11480,-47
11481,-48
11482,-48
11483,-48
11484,-48
11485,-48
11486,-48
11487,-48
11488,-48
11489,-49
11490,-49
11491,-49
11492,-49
11493,-50
11494,-50
11495,-50
11496,-50
11497,-51
11498,-51
11499,-52
11500,-52
11501,-52
11502,-53
11503,-53
11504,-54
11505,-54
11506,-55
11507,-55
11508,-56
11509,-56
11510,-57
11511,-57
11512,-58
11513,-58
11514,-58
11515,-58
11516,-59
11517,-59
11518,-59
11519,-59
11520,-59
11521,-58
11522,-58
11523,-58
11524,-57
11525,-57
11526,-56
11527,-55
11528,-55
11529,-54
11530,-53
11531,-52
11532,-50
11533,-49
11534,-48
11535,-46
11536,-45
11537,-43
11538,-42
11539,-40
11540,-39
11541,-37
11542,-36
11543,-35
11544,-33
11545,-32
11546,-30
11547,-29
11548,-28
11549,-27
11550,-26
11551,-25
11552,-24
11553,-24
11554,-23
11555,-23
11556,-22
11557,-22
11558,-22
11559,-23
11560,-23
11561,-23
11562,-24
11563,-25
11564,-26
11565,-27
11566,-28
11567,-30
11568,-31
11569,-32
11570,-34
11571,-35
11572,-36
11573,-37
11574,-38
11575,-39
11576,-40
11577,-41
11578,-41
11579,-42
11580,-42
11581,-43
11582,-43
11583,-43
11584,-43
11585,-44
11586,-45
11587,-46
11588,-47
11589,-48
11590,-50
11591,-52
11592,-54
11593,-56
11594,-59
11595,-62
11596,-64
11597,-65
11598,-66
11599,-66
11600,-64
11601,-61
11602,-57
11603,-53
11604,-49
11605,-46
11606,-46
11607,-47
11608,-48
11609,-46
11610,-41
11611,-36
11612,-37
11613,-45
11614,-55
11615,-57
11616,-38
11617,7
11618,76
11619,162
11620,251
11621,331
11622,393
11623,424
11624,417
11625,369
11626,283
11627,178
11628,71
11629,-19
11630,-82
11631,-116
11632,-129
11633,-132
11634,-134
11635,-138
11636,-141
11637,-138
11638,-126
11639,-106
11640,-83
11641,-60
11642,-42
11643,-28
11644,-19
11645,-15
11646,-16
11647,-21
11648,-28
11649,-37
11650,-45
11651,-53
11652,-59
11653,-63
11654,-65
11655,-64
11656,-61
11657,-57
11658,-53
11659,-50
11660,-46
11661,-44
11662,-43
11663,-42
11664,-42
11665,-43
11666,-43
11667,-44
11668,-44
11669,-44
11670,-44
11671,-44
11672,-43
11673,-42
11674,-40
11675,-39
11676,-37
11677,-36
11678,-34
11679,-32
11680,-29
11681,-27
11682,-25
11683,-22
11684,-20
11685,-18
11686,-15
11687,-13
11688,-10
11689,-8
11690,-5
11691,-3
11692,0
11693,2
11694,4
11695,7
11696,10
11697,13
11698,16
11699,19
11700,23
11701,26
11702,30
11703,33
11704,37
11705,41
11706,45
11707,49
11708,54
11709,58
11710,63
11711,67
11712,72
11713,77
11714,82
11715,87
11716,92
11717,97
11718,103
11719,108
11720,113
11721,119
11722,124
11723,130
11724,135
11725,140
11726,145
11727,150
11728,155
11729,160
11730,164
11731,169
11732,173
11733,177
11734,180
11735,184
11736,187
11737,190
11738,192
11739,194
11740,196
11741,197
11742,198
11743,198
11744,198
11745,197
11746,197
11747,195
11748,193
11749,191
11750,188
11751,185
11752,182
11753,178
11754,173
11755,168
11756,163
11757,158
11758,152
11759,145
11760,139
11761,132
11762,124
11763,117
11764,109
11765,101
11766,93
11767,85
11768,77
11769,68
11770,60
11771,52
11772,43
11773,35
11774,27
11775,18
11776,10
11777,2
11778,-4
11779,-12
11780,-19
11781,-26
11782,-33
11783,-40
11784,-46
11785,-52
11786,-58
11787,-63
11788,-68
11789,-73
11790,-77
11791,-81
11792,-85
11793,-88
11794,-91
11795,-94
11796,-96
11797,-98
11798,-100
11799,-101
11800,-102
11801,-103
11802,-103
11803,-104
11804,-104
11805,-103
11806,-103
11807,-102
11808,-102
11809,-101
11810,-100
11811,-99
11812,-97
11813,-96
11814,-95
11815,-93
11816,-92
11817,-90
11818,-89
11819,-87
11820,-86
11821,-84
11822,-83
11823,-82
11824,-80
11825,-79
11826,-78
11827,-77
11828,-76
11829,-75
11830,-75
11831,-74
11832,-73
11833,-73
11834,-73
11835,-72
11836,-72
11837,-72
11838,-72
11839,-72
11840,-72
11841,-73
11842,-73
11843,-73
11844,-73
11845,-74
11846,-74
11847,-75
11848,-75
11849,-76
11850,-76
11851,-77
11852,-77
11853,-78
11854,-78
11855,-78
11856,-79
11857,-79
11858,-79
11859,-79
11860,-79
11861,-79
11862,-79
11863,-79
11864,-79
11865,-79
11866,-78
11867,-78
11868,-78
11869,-77
11870,-77
11871,-76
11872,-75
11873,-75
11874,-74
11875,-73
11876,-72
11877,-72
11878,-71
11879,-70
11880,-69
11881,-68
11882,-67
11883,-66
11884,-66
11885,-65
11886,-64
11887,-63
11888,-63
11889,-62
11890,-61
11891,-61
11892,-60
11893,-60
11894,-59
11895,-59
11896,-58
11897,-58
11898,-58
11899,-57
11900,-57
11901,-57
11902,-57
11903,-57
11904,-57
11905,-57
11906,-57
11907,-57
11908,-56
11909,-56
11910,-56
11911,-56
11912,-56
11913,-56
11914,-55
11915,-55
11916,-55
11917,-54
11918,-54
11919,-53
11920,-53
11921,-52
11922,-52
11923,-51
11924,-50
11925,-49
11926,-48
11927,-47
11928,-46
11929,-45
11930,-44
11931,-43
11932,-42
11933,-41
11934,-39
11935,-38
11936,-37
11937,-36
11938,-35
11939,-34
11940,-33
11941,-32
11942,-31
11943,-30
11944,-29
11945,-29
11946,-28
11947,-28
11948,-27
11949,-27
11950,-27
11951,-27
11952,-27
11953,-27
11954,-28
11955,-28
11956,-29
11957,-30
11958,-31
11959,-32
11960,-32
11961,-33
11962,-34
11963,-35
11964,-36
11965,-37
11966,-38
11967,-38
11968,-38
11969,-38
11970,-38
11971,-38
11972,-38
11973,-37
11974,-37
11975,-37
11976,-37
11977,-37
11978,-37
11979,-38
11980,-39
11981,-40
11982,-43
11983,-46
11984,-49
11985,-53
11986,-57
11987,-60
11988,-63
11989,-66
11990,-67
11991,-66
11992,-65
11993,-63
11994,-61
11995,-60
11996,-60
11997,-63
11998,-67
11999,-72
12000,-79
12001,-84
12002,-87
12003,-85
12004,-76
12005,-59
12006,-32
12007,4
12008,49
12009,99
12010,149
12011,196
12012,241
12013,287
12014,332
12015,372
12016,396
12017,389
12018,347
12019,273
12020,179
12021,86
12022,8
12023,-49
12024,-85
12025,-107
12026,-122
12027,-131
12028,-136
12029,-133
12030,-118
12031,-97
12032,-74
12033,-56
12034,-51
12035,-55
12036,-62
12037,-70
12038,-72
12039,-72
12040,-70
12041,-67
12042,-65
12043,-62
12044,-58
12045,-53
12046,-48
12047,-42
12048,-38
12049,-34
12050,-32
12051,-30
12052,-29
12053,-29
12054,-29
12055,-30
12056,-30
12057,-31
12058,-32
12059,-33
12060,-34
12061,-35
12062,-35
12063,-35
12064,-35
12065,-34
