point,value
1,-202
2,-318
3,-185
4,67
5,92
6,-113
7,-228
8,-144
9,-59
10,-75
11,-108
12,-130
13,-139
14,-83
15,-40
16,-129
17,-236
18,-187
19,-39
20,20
21,-100
22,-282
23,-273
24,-32
25,125
26,-50
27,-327
28,-320
29,-70
30,70
31,-33
32,-189
33,-220
34,-157
35,-116
36,-132
37,-174
38,-189
39,-147
40,-104
41,-131
42,-167
43,-150
44,-117
45,-94
46,-66
47,-38
48,-18
49,-15
50,-30
51,-55
52,-86
53,-110
54,-126
55,-133
56,-128
57,-116
58,-95
59,-66
60,-38
61,-17
62,-9
63,-18
64,-38
65,-60
66,-76
67,-79
68,-86
69,-78
70,-8
71,49
72,9
73,-46
74,-36
75,-10
76,-4
77,0
78,3
79,5
80,3
81,0
82,-3
83,-21
84,-22
85,57
86,136
87,57
88,-105
89,-111
90,54
91,148
92,74
93,-6
94,2
95,29
96,34
97,37
98,40
99,40
100,40
101,39
102,40
103,40
104,41
105,41
106,41
107,42
108,41
109,41
110,41
111,41
112,40
113,40
114,39
115,38
116,37
117,37
118,36
119,35
120,34
121,32
122,31
123,30
124,29
125,28
126,26
127,25
128,23
129,22
130,20
131,18
132,17
133,15
134,14
135,12
136,11
137,10
138,9
139,8
140,7
141,7
142,7
143,7
144,8
145,9
146,10
147,12
148,14
149,16
150,17
151,19
152,21
153,22
154,22
155,22
156,22
157,20
158,18
159,16
160,14
161,12
162,10
163,10
164,11
165,13
166,16
167,19
168,20
169,20
170,17
171,11
172,2
173,-8
174,-20
175,-30
176,-35
177,-33
178,-23
179,-1
180,32
181,79
182,137
183,205
184,278
185,353
186,427
187,494
188,552
189,595
190,621
191,628
192,615
193,583
194,534
195,470
196,395
197,311
198,220
199,131
200,50
201,-11
202,-48
203,-65
204,-64
205,-52
206,-36
207,-15
208,7
209,29
210,49
211,65
212,74
213,76
214,73
215,65
216,55
217,45
218,37
219,31
220,28
221,27
222,29
223,32
224,36
225,40
226,43
227,44
228,45
229,44
230,43
231,40
232,37
233,33
234,30
235,28
236,25
237,23
238,22
239,21
240,21
241,21
242,21
243,22
244,23
245,24
246,26
247,28
248,31
249,33
250,35
251,38
252,40
253,43
254,45
255,47
256,49
257,51
258,53
259,55
260,57
261,59
262,60
263,62
264,64
265,65
266,67
267,68
268,70
269,72
270,74
271,76
272,78
273,80
274,82
275,85
276,88
277,91
278,94
279,97
280,101
281,105
282,110
283,115
284,120
285,125
286,131
287,137
288,143
289,149
290,156
291,163
292,169
293,176
294,183
295,191
296,198
297,205
298,212
299,219
300,226
301,234
302,241
303,249
304,258
305,266
306,275
307,285
308,295
309,305
310,315
311,326
312,338
313,349
314,361
315,372
316,383
317,394
318,404
319,413
320,421
321,427
322,432
323,435
324,436
325,436
326,433
327,429
328,422
329,414
330,403
331,390
332,376
333,360
334,342
335,323
336,303
337,283
338,262
339,240
340,219
341,198
342,178
343,158
344,141
345,124
346,110
347,96
348,86
349,79
350,72
351,65
352,50
353,26
354,-1
355,-29
356,-44
357,-39
358,-35
359,-34
360,31
361,152
362,144
363,-48
364,-178
365,-102
366,-4
367,-8
368,-36
369,-39
370,-44
371,-49
372,-51
373,-51
374,-51
375,-52
376,-55
377,-59
378,-64
379,-82
380,-90
381,-50
382,-16
383,-57
384,-120
385,-119
386,-49
387,15
388,-8
389,-102
390,-139
391,-75
392,-18
393,-27
394,-50
395,-53
396,-52
397,-51
398,-48
399,-45
400,-44
401,-43
402,-42
403,-42
404,-42
405,-41
406,-41
407,-41
408,-41
409,-41
410,-41
411,-42
412,-42
413,-42
414,-43
415,-43
416,-44
417,-45
418,-45
419,-46
420,-47
421,-48
422,-49
423,-49
424,-50
425,-51
426,-52
427,-53
428,-53
429,-54
430,-55
431,-55
432,-56
433,-57
434,-57
435,-58
436,-58
437,-59
438,-59
439,-59
440,-60
441,-60
442,-60
443,-60
444,-60
445,-61
446,-61
447,-61
448,-61
449,-61
450,-61
451,-61
452,-61
453,-61
454,-61
455,-62
456,-62
457,-62
458,-62
459,-62
460,-63
461,-63
462,-63
463,-64
464,-64
465,-64
466,-65
467,-65
468,-66
469,-67
470,-67
471,-68
472,-69
473,-69
474,-70
475,-71
476,-72
477,-73
478,-74
479,-75
480,-75
481,-76
482,-77
483,-78
484,-79
485,-80
486,-81
487,-82
488,-83
489,-84
490,-85
491,-85
492,-86
493,-87
494,-88
495,-88
496,-89
497,-90
498,-90
499,-91
500,-91
501,-92
502,-92
503,-93
504,-93
505,-93
506,-93
507,-94
508,-94
509,-94
510,-94
511,-94
512,-94
513,-94
514,-94
515,-93
516,-93
517,-93
518,-93
519,-92
520,-92
521,-91
522,-91
523,-90
524,-90
525,-89
526,-89
527,-88
528,-88
529,-87
530,-87
531,-86
532,-85
533,-85
534,-84
535,-84
536,-83
537,-82
538,-82
539,-81
540,-81
541,-80
542,-80
543,-79
544,-79
545,-79
546,-78
547,-78
548,-78
549,-77
550,-77
551,-77
552,-77
553,-77
554,-77
555,-77
556,-78
557,-78
558,-78
559,-78
560,-78
561,-78
562,-79
563,-81
564,-84
565,-85
566,-84
567,-80
568,-62
569,-53
570,-96
571,-135
572,-100
573,-56
574,-64
575,-86
576,-89
577,-89
578,-89
579,-88
580,-87
581,-86
582,-86
583,-86
584,-86
585,-85
586,-85
587,-84
588,-83
589,-83
590,-81
591,-80
592,-79
593,-78
594,-76
595,-74
596,-73
597,-71
598,-69
599,-67
600,-65
601,-63
602,-60
603,-58
604,-56
605,-53
606,-51
607,-48
608,-45
609,-42
610,-38
611,-35
612,-32
613,-30
614,-29
615,-29
616,-29
617,-29
618,-28
619,-28
620,-30
621,-33
622,-34
623,-29
624,-28
625,-13
626,56
627,105
628,49
629,-36
630,-73
631,-89
632,-83
633,-66
634,-126
635,-171
636,17
637,302
638,276
639,-60
640,-276
641,-173
642,13
643,53
644,-27
645,-101
646,-101
647,-39
648,0
649,-33
650,-77
651,-70
652,-54
653,-57
654,-66
655,-88
656,-103
657,-64
658,-28
659,-67
660,-115
661,-109
662,-89
663,-89
664,-91
665,-93
666,-96
667,-98
668,-99
669,-99
670,-98
671,-97
672,-96
673,-94
674,-91
675,-88
676,-85
677,-82
678,-79
679,-76
680,-73
681,-70
682,-68
683,-67
684,-66
685,-66
686,-67
687,-68
688,-68
689,-68
690,-68
691,-67
692,-64
693,-62
694,-60
695,-59
696,-61
697,-65
698,-73
699,-84
700,-96
701,-108
702,-116
703,-119
704,-117
705,-113
706,-99
707,-71
708,-25
709,41
710,122
711,209
712,295
713,372
714,438
715,492
716,529
717,551
718,555
719,539
720,504
721,453
722,389
723,317
724,242
725,168
726,99
727,39
728,-9
729,-44
730,-66
731,-77
732,-77
733,-70
734,-57
735,-42
736,-28
737,-17
738,-10
739,-7
740,-7
741,-9
742,-14
743,-20
744,-26
745,-30
746,-32
747,-32
748,-31
749,-29
750,-26
751,-22
752,-19
753,-16
754,-14
755,-13
756,-13
757,-13
758,-14
759,-15
760,-17
761,-19
762,-22
763,-24
764,-25
765,-27
766,-28
767,-29
768,-29
769,-29
770,-28
771,-27
772,-26
773,-25
774,-23
775,-21
776,-19
777,-17
778,-15
779,-12
780,-10
781,-8
782,-5
783,-3
784,-1
785,0
786,1
787,3
788,4
789,6
790,7
791,8
792,10
793,11
794,12
795,14
796,15
797,17
798,18
799,20
800,22
801,24
802,26
803,29
804,31
805,34
806,37
807,41
808,44
809,48
810,53
811,57
812,62
813,68
814,73
815,79
816,86
817,92
818,99
819,106
820,113
821,120
822,127
823,135
824,142
825,150
826,158
827,165
828,173
829,180
830,188
831,196
832,204
833,212
834,220
835,229
836,237
837,246
838,255
839,264
840,273
841,282
842,291
843,301
844,309
845,318
846,326
847,334
848,341
849,347
850,351
851,355
852,357
853,358
854,357
855,355
856,352
857,346
858,340
859,331
860,321
861,310
862,297
863,282
864,267
865,251
866,234
867,216
868,198
869,180
870,161
871,143
872,124
873,106
874,88
875,72
876,56
877,41
878,27
879,14
880,2
881,-7
882,-17
883,-25
884,-33
885,-39
886,-44
887,-49
888,-53
889,-56
890,-58
891,-60
892,-62
893,-63
894,-65
895,-66
896,-68
897,-70
898,-71
899,-73
900,-75
901,-77
902,-80
903,-82
904,-84
905,-86
906,-89
907,-91
908,-92
909,-94
910,-95
911,-96
912,-97
913,-97
914,-97
915,-97
916,-97
917,-96
918,-95
919,-94
920,-93
921,-92
922,-90
923,-89
924,-88
925,-86
926,-85
927,-84
928,-83
929,-82
930,-81
931,-81
932,-80
933,-79
934,-79
935,-78
936,-78
937,-77
938,-77
939,-77
940,-77
941,-76
942,-76
943,-76
944,-76
945,-76
946,-76
947,-75
948,-75
949,-75
950,-75
951,-75
952,-75
953,-75
954,-75
955,-75
956,-75
957,-75
958,-75
959,-75
960,-75
961,-74
962,-74
963,-74
964,-74
965,-74
966,-73
967,-73
968,-73
969,-73
970,-73
971,-72
972,-72
973,-72
974,-72
975,-71
976,-71
977,-71
978,-71
979,-70
980,-70
981,-70
982,-70
983,-69
984,-69
985,-69
986,-69
987,-69
988,-69
989,-68
990,-68
991,-68
992,-68
993,-68
994,-68
995,-68
996,-68
997,-68
998,-68
999,-68
1000,-68
1001,-68
1002,-68
1003,-69
1004,-69
1005,-69
1006,-69
1007,-69
1008,-69
1009,-69
1010,-69
1011,-69
1012,-69
1013,-69
1014,-69
1015,-70
1016,-70
1017,-70
1018,-70
1019,-70
1020,-70
1021,-70
1022,-70
1023,-70
1024,-70
1025,-70
1026,-70
1027,-70
1028,-70
1029,-70
1030,-69
1031,-69
1032,-69
1033,-69
1034,-69
1035,-69
1036,-69
1037,-69
1038,-68
1039,-68
1040,-68
1041,-68
1042,-68
1043,-68
1044,-68
1045,-68
1046,-67
1047,-67
1048,-67
1049,-67
1050,-67
1051,-67
1052,-67
1053,-67
1054,-67
1055,-67
1056,-67
1057,-67
1058,-67
1059,-67
1060,-67
1061,-67
1062,-67
1063,-68
1064,-68
1065,-68
1066,-68
1067,-68
1068,-69
1069,-69
1070,-69
1071,-69
1072,-70
1073,-70
1074,-70
1075,-70
1076,-71
1077,-71
1078,-71
1079,-71
1080,-71
1081,-72
1082,-72
1083,-72
1084,-72
1085,-72
1086,-72
1087,-72
1088,-72
1089,-72
1090,-72
1091,-72
1092,-72
1093,-72
1094,-71
1095,-71
1096,-71
1097,-70
1098,-70
1099,-70
1100,-69
1101,-69
1102,-68
1103,-67
1104,-67
1105,-66
1106,-66
1107,-65
1108,-64
1109,-64
1110,-63
1111,-62
1112,-61
1113,-61
1114,-60
1115,-59
1116,-59
1117,-58
1118,-58
1119,-57
1120,-56
1121,-56
1122,-56
1123,-55
1124,-55
1125,-54
1126,-54
1127,-54
1128,-54
1129,-53
1130,-53
1131,-53
1132,-53
1133,-53
1134,-53
1135,-53
1136,-53
1137,-53
1138,-53
1139,-53
1140,-54
1141,-54
1142,-54
1143,-54
1144,-54
1145,-54
1146,-54
1147,-54
1148,-54
1149,-54
1150,-54
1151,-54
1152,-54
1153,-54
1154,-53
1155,-53
1156,-53
1157,-52
1158,-52
1159,-51
1160,-51
1161,-50
1162,-49
1163,-49
1164,-48
1165,-47
1166,-46
1167,-46
1168,-45
1169,-44
1170,-43
1171,-42
1172,-41
1173,-40
1174,-39
1175,-38
1176,-37
1177,-36
1178,-35
1179,-34
1180,-33
1181,-32
1182,-31
1183,-30
1184,-29
1185,-29
1186,-28
1187,-27
1188,-27
1189,-26
1190,-26
1191,-25
1192,-25
1193,-25
1194,-25
1195,-25
1196,-25
1197,-25
1198,-26
1199,-26
1200,-27
1201,-27
1202,-28
1203,-29
1204,-30
1205,-31
1206,-32
1207,-34
1208,-35
1209,-37
1210,-38
1211,-40
1212,-41
1213,-43
1214,-45
1215,-47
1216,-49
1217,-51
1218,-53
1219,-55
1220,-57
1221,-59
1222,-61
1223,-63
1224,-65
1225,-66
1226,-68
1227,-69
1228,-71
1229,-72
1230,-73
1231,-74
1232,-74
1233,-74
1234,-74
1235,-73
1236,-72
1237,-71
1238,-70
1239,-69
1240,-69
1241,-70
1242,-71
1243,-72
1244,-74
1245,-76
1246,-78
1247,-78
1248,-77
1249,-74
1250,-68
1251,-61
1252,-52
1253,-42
1254,-32
1255,-23
1256,-18
1257,-17
1258,-22
1259,-31
1260,-44
1261,-61
1262,-80
1263,-99
1264,-115
1265,-124
1266,-123
1267,-112
1268,-88
1269,-51
1270,0
1271,64
1272,138
1273,218
1274,299
1275,378
1276,450
1277,510
1278,553
1279,576
1280,576
1281,554
1282,515
1283,460
1284,392
1285,312
1286,221
1287,123
1288,33
1289,-39
1290,-83
1291,-94
1292,-85
1293,-64
1294,-44
1295,-30
1296,-18
1297,-8
1298,0
1299,7
1300,10
1301,8
1302,3
1303,-4
1304,-11
1305,-17
1306,-20
1307,-21
1308,-20
1309,-17
1310,-13
1311,-8
1312,-4
1313,-1
1314,1
1315,3
1316,4
1317,4
1318,3
1319,2
1320,1
1321,0
1322,-1
1323,-3
1324,-4
1325,-6
1326,-7
1327,-7
1328,-8
1329,-8
1330,-7
1331,-7
1332,-5
1333,-4
1334,-2
1335,0
1336,1
1337,3
1338,6
1339,8
1340,11
1341,13
1342,16
1343,18
1344,21
1345,23
1346,25
1347,27
1348,28
1349,30
1350,32
1351,33
1352,35
1353,36
1354,38
1355,39
1356,40
1357,42
1358,44
1359,45
1360,47
1361,49
1362,51
1363,54
1364,56
1365,59
1366,62
1367,66
1368,69
1369,73
1370,77
1371,82
1372,87
1373,92
1374,98
1375,104
1376,111
1377,117
1378,124
1379,132
1380,139
1381,147
1382,155
1383,163
1384,171
1385,179
1386,187
1387,195
1388,204
1389,212
1390,220
1391,228
1392,237
1393,245
1394,254
1395,263
1396,272
1397,282
1398,291
1399,301
1400,312
1401,322
1402,333
1403,343
1404,354
1405,365
1406,376
1407,386
1408,396
1409,405
1410,414
1411,421
1412,426
1413,431
1414,433
1415,434
1416,434
1417,431
1418,426
1419,419
1420,410
1421,399
1422,386
1423,372
1424,355
1425,338
1426,319
1427,299
1428,279
1429,258
1430,238
1431,217
1432,197
1433,177
1434,158
1435,140
1436,123
1437,108
1438,94
1439,81
1440,69
1441,59
1442,51
1443,43
1444,36
1445,31
1446,26
1447,21
1448,18
1449,14
1450,11
1451,9
1452,6
1453,3
1454,0
1455,-2
1456,-6
1457,-9
1458,-13
1459,-16
1460,-20
1461,-23
1462,-27
1463,-30
1464,-34
1465,-36
1466,-39
1467,-41
1468,-43
1469,-45
1470,-46
1471,-47
1472,-47
1473,-47
1474,-47
1475,-46
1476,-46
1477,-45
1478,-44
1479,-42
1480,-41
1481,-40
1482,-39
1483,-38
1484,-37
1485,-36
1486,-35
1487,-35
1488,-34
1489,-34
1490,-33
1491,-33
1492,-33
1493,-34
1494,-34
1495,-34
1496,-35
1497,-36
1498,-36
1499,-37
1500,-38
1501,-39
1502,-40
1503,-41
1504,-42
1505,-44
1506,-45
1507,-46
1508,-48
1509,-49
1510,-50
1511,-52
1512,-53
1513,-54
1514,-56
1515,-57
1516,-58
1517,-59
1518,-61
1519,-62
1520,-63
1521,-64
1522,-65
1523,-66
1524,-67
1525,-67
1526,-68
1527,-69
1528,-70
1529,-70
1530,-71
1531,-71
1532,-72
1533,-72
1534,-73
1535,-73
1536,-74
1537,-74
1538,-74
1539,-75
1540,-75
1541,-75
1542,-76
1543,-76
1544,-76
1545,-77
1546,-77
1547,-77
1548,-78
1549,-78
1550,-79
1551,-79
1552,-79
1553,-80
1554,-80
1555,-81
1556,-81
1557,-82
1558,-82
1559,-83
1560,-83
1561,-84
1562,-84
1563,-85
1564,-85
1565,-86
1566,-86
1567,-87
1568,-87
1569,-88
1570,-88
1571,-89
1572,-89
1573,-90
1574,-90
1575,-91
1576,-91
1577,-91
1578,-92
1579,-92
1580,-92
1581,-93
1582,-93
1583,-93
1584,-93
1585,-93
1586,-94
1587,-94
1588,-94
1589,-94
1590,-94
1591,-94
1592,-94
1593,-94
1594,-93
1595,-93
1596,-93
1597,-93
1598,-93
1599,-92
1600,-92
1601,-92
1602,-91
1603,-91
1604,-91
1605,-90
1606,-90
1607,-89
1608,-89
1609,-88
1610,-87
1611,-87
1612,-86
1613,-86
1614,-85
1615,-84
1616,-84
1617,-83
1618,-82
1619,-81
1620,-81
1621,-80
1622,-79
1623,-78
1624,-77
1625,-77
1626,-76
1627,-75
1628,-74
1629,-73
1630,-73
1631,-72
1632,-71
1633,-70
1634,-70
1635,-69
1636,-68
1637,-68
1638,-67
1639,-67
1640,-66
1641,-66
1642,-65
1643,-65
1644,-65
1645,-65
1646,-65
1647,-65
1648,-65
1649,-65
1650,-66
1651,-67
1652,-67
1653,-68
1654,-69
1655,-70
1656,-71
1657,-71
1658,-71
1659,-71
1660,-71
1661,-72
1662,-72
1663,-73
1664,-75
1665,-78
1666,-81
1667,-85
1668,-87
1669,-88
1670,-90
1671,-94
1672,-99
1673,-106
1674,-102
1675,-84
1676,-77
1677,-55
1678,45
1679,111
1680,-67
1681,-372
1682,-435
1683,-223
1684,-46
1685,-56
1686,-135
1687,-110
1688,61
1689,180
1690,34
1691,-230
1692,-306
1693,-179
1694,-77
1695,-119
1696,-225
1697,-236
1698,-61
1699,147
1700,120
1701,-113
1702,-246
1703,-167
1704,-56
1705,-45
1706,-107
1707,-142
1708,-99
1709,-50
1710,-55
1711,-72
1712,-70
1713,-66
1714,-63
1715,-60
1716,-57
1717,-54
1718,-52
1719,-50
1720,-48
1721,-46
1722,-43
1723,-41
1724,-39
1725,-37
1726,-35
1727,-33
1728,-32
1729,-30
1730,-29
1731,-27
1732,-26
1733,-25
1734,-25
1735,-24
1736,-23
1737,-23
1738,-23
1739,-23
1740,-23
1741,-23
1742,-23
1743,-23
1744,-24
1745,-24
1746,-25
1747,-26
1748,-27
1749,-28
1750,-29
1751,-30
1752,-31
1753,-32
1754,-34
1755,-35
1756,-37
1757,-38
1758,-40
1759,-41
1760,-43
1761,-45
1762,-46
1763,-48
1764,-50
1765,-52
1766,-53
1767,-55
1768,-57
1769,-59
1770,-60
1771,-62
1772,-64
1773,-66
1774,-68
1775,-70
1776,-72
1777,-74
1778,-76
1779,-78
1780,-79
1781,-81
1782,-83
1783,-85
1784,-86
1785,-87
1786,-88
1787,-89
1788,-89
1789,-89
1790,-88
1791,-87
1792,-86
1793,-84
1794,-82
1795,-81
1796,-79
1797,-77
1798,-75
1799,-73
1800,-72
1801,-72
1802,-72
1803,-73
1804,-75
1805,-77
1806,-79
1807,-81
1808,-81
1809,-81
1810,-80
1811,-78
1812,-75
1813,-74
1814,-75
1815,-78
1816,-86
1817,-97
1818,-110
1819,-122
1820,-131
1821,-139
1822,-149
1823,-161
1824,-169
1825,-162
1826,-127
1827,-59
1828,36
1829,133
1830,239
1831,401
1832,544
1833,528
1834,424
1835,456
1836,638
1837,715
1838,560
1839,369
1840,335
1841,380
1842,332
1843,165
1844,-5
1845,-107
1846,-168
1847,-208
1848,-205
1849,-179
1850,-130
1851,-12
1852,73
1853,-4
1854,-99
1855,-54
1856,18
1857,19
1858,0
1859,-3
1860,-8
1861,-17
1862,-23
1863,-26
1864,-27
1865,-26
1866,-24
1867,-19
1868,-14
1869,-9
1870,-5
1871,-2
1872,0
1873,0
1874,0
1875,0
1876,-2
1877,-4
1878,-7
1879,-9
1880,-11
1881,-13
1882,-14
1883,-15
1884,-16
1885,-16
1886,-16
1887,-15
1888,-15
1889,-14
1890,-12
1891,-11
1892,-9
1893,-7
1894,-5
1895,-3
1896,-2
1897,0
1898,1
1899,3
1900,4
1901,5
1902,7
1903,8
1904,8
1905,9
1906,10
1907,11
1908,11
1909,12
1910,12
1911,13
1912,14
1913,14
1914,15
1915,16
1916,17
1917,18
1918,19
1919,21
1920,22
1921,24
1922,25
1923,27
1924,30
1925,34
1926,38
1927,43
1928,46
1929,50
1930,56
1931,66
1932,77
1933,89
1934,112
1935,121
1936,65
1937,19
1938,75
1939,148
1940,154
1941,143
1942,150
1943,159
1944,183
1945,200
1946,163
1947,132
1948,179
1949,236
1950,236
1951,223
1952,230
1953,242
1954,253
1955,266
1956,278
1957,291
1958,303
1959,315
1960,327
1961,339
1962,352
1963,364
1964,376
1965,387
1966,397
1967,407
1968,415
1969,421
1970,426
1971,429
1972,431
1973,430
1974,427
1975,423
1976,416
1977,407
1978,395
1979,382
1980,367
1981,350
1982,332
1983,313
1984,292
1985,272
1986,250
1987,229
1988,208
1989,187
1990,166
1991,146
1992,128
1993,110
1994,94
1995,79
1996,66
1997,55
1998,44
1999,35
2000,28
2001,21
2002,16
2003,12
2004,8
2005,5
2006,3
2007,1
2008,0
2009,-1
2010,-3
2011,-4
2012,-6
2013,-9
2014,-11
2015,-14
2016,-17
2017,-20
2018,-23
2019,-26
2020,-30
2021,-33
2022,-37
2023,-40
2024,-43
2025,-45
2026,-48
2027,-50
2028,-51
2029,-52
2030,-53
2031,-53
2032,-53
2033,-53
2034,-52
2035,-52
2036,-51
2037,-50
2038,-48
2039,-47
2040,-46
2041,-45
2042,-43
2043,-42
2044,-41
2045,-40
2046,-39
2047,-38
2048,-37
2049,-36
2050,-36
2051,-35
2052,-35
2053,-34
2054,-34
2055,-33
2056,-33
2057,-33
2058,-32
2059,-32
2060,-32
2061,-32
2062,-31
2063,-31
2064,-31
2065,-31
2066,-31
2067,-31
2068,-31
2069,-31
2070,-31
2071,-31
2072,-31
2073,-32
2074,-32
2075,-32
2076,-32
2077,-32
2078,-32
2079,-32
2080,-32
2081,-33
2082,-33
2083,-33
2084,-33
2085,-33
2086,-33
2087,-33
2088,-34
2089,-34
2090,-34
2091,-34
2092,-34
2093,-35
2094,-35
2095,-35
2096,-35
2097,-36
2098,-36
2099,-36
2100,-37
2101,-37
2102,-37
2103,-38
2104,-38
2105,-38
2106,-39
2107,-39
2108,-40
2109,-40
2110,-40
2111,-41
2112,-41
2113,-42
2114,-42
2115,-43
2116,-43
2117,-43
2118,-44
2119,-44
2120,-45
2121,-45
2122,-46
2123,-46
2124,-46
2125,-47
2126,-47
2127,-48
2128,-48
2129,-48
2130,-49
2131,-49
2132,-49
2133,-50
2134,-50
2135,-50
2136,-51
2137,-51
2138,-51
2139,-52
2140,-52
2141,-52
2142,-52
2143,-53
2144,-53
2145,-53
2146,-53
2147,-54
2148,-54
2149,-54
2150,-55
2151,-55
2152,-55
2153,-56
2154,-56
2155,-56
2156,-57
2157,-57
2158,-57
2159,-58
2160,-58
2161,-59
2162,-59
2163,-59
2164,-60
2165,-60
2166,-61
2167,-61
2168,-62
2169,-62
2170,-62
2171,-63
2172,-63
2173,-64
2174,-64
2175,-65
2176,-65
2177,-65
2178,-66
2179,-66
2180,-67
2181,-67
2182,-67
2183,-68
2184,-68
2185,-68
2186,-69
2187,-69
2188,-69
2189,-70
2190,-70
2191,-70
2192,-70
2193,-71
2194,-71
2195,-71
2196,-71
2197,-72
2198,-72
2199,-72
2200,-72
2201,-72
2202,-72
2203,-73
2204,-73
2205,-73
2206,-73
2207,-73
2208,-73
2209,-74
2210,-74
2211,-74
2212,-74
2213,-74
2214,-74
2215,-74
2216,-74
2217,-74
2218,-74
2219,-74
2220,-74
2221,-74
2222,-74
2223,-74
2224,-73
2225,-73
2226,-73
2227,-73
2228,-72
2229,-72
2230,-71
2231,-71
2232,-70
2233,-70
2234,-69
2235,-68
2236,-68
2237,-67
2238,-66
2239,-65
2240,-64
2241,-63
2242,-62
2243,-61
2244,-60
2245,-59
2246,-58
2247,-57
2248,-56
2249,-54
2250,-53
2251,-52
2252,-51
2253,-50
2254,-49
2255,-48
2256,-47
2257,-46
2258,-45
2259,-44
2260,-43
2261,-42
2262,-41
2263,-40
2264,-40
2265,-39
2266,-38
2267,-38
2268,-38
2269,-37
2270,-37
2271,-37
2272,-37
2273,-37
2274,-37
2275,-37
2276,-38
2277,-38
2278,-39
2279,-39
2280,-40
2281,-41
2282,-42
2283,-43
2284,-44
2285,-46
2286,-47
2287,-48
2288,-50
2289,-51
2290,-53
2291,-55
2292,-57
2293,-58
2294,-60
2295,-62
2296,-64
2297,-66
2298,-68
2299,-70
2300,-72
2301,-74
2302,-76
2303,-78
2304,-81
2305,-83
2306,-85
2307,-87
2308,-88
2309,-90
2310,-92
2311,-93
2312,-94
2313,-95
2314,-95
2315,-95
2316,-95
2317,-94
2318,-93
2319,-92
2320,-90
2321,-88
2322,-86
2323,-84
2324,-82
2325,-80
2326,-78
2327,-77
2328,-77
2329,-77
2330,-78
2331,-79
2332,-81
2333,-83
2334,-85
2335,-86
2336,-86
2337,-84
2338,-82
2339,-78
2340,-74
2341,-70
2342,-68
2343,-69
2344,-73
2345,-81
2346,-92
2347,-106
2348,-119
2349,-130
2350,-134
2351,-129
2352,-113
2353,-82
2354,-35
2355,26
2356,101
2357,185
2358,273
2359,361
2360,441
2361,508
2362,555
2363,580
2364,580
2365,554
2366,505
2367,436
2368,353
2369,262
2370,170
2371,83
2372,7
2373,-52
2374,-95
2375,-119
2376,-128
2377,-122
2378,-107
2379,-86
2380,-63
2381,-43
2382,-27
2383,-16
2384,-11
2385,-11
2386,-14
2387,-20
2388,-26
2389,-31
2390,-33
2391,-33
2392,-31
2393,-27
2394,-22
2395,-17
2396,-12
2397,-8
2398,-5
2399,-2
2400,-2
2401,-1
2402,-2
2403,-3
2404,-5
2405,-6
2406,-8
2407,-10
2408,-12
2409,-13
2410,-14
2411,-15
2412,-16
2413,-16
2414,-15
2415,-15
2416,-14
2417,-12
2418,-11
2419,-9
2420,-7
2421,-4
2422,-2
2423,0
2424,2
2425,4
2426,6
2427,9
2428,11
2429,13
2430,15
2431,16
2432,18
2433,20
2434,21
2435,23
2436,24
2437,26
2438,27
2439,28
2440,30
2441,32
2442,33
2443,35
2444,37
2445,39
2446,41
2447,44
2448,46
2449,49
2450,52
2451,55
2452,59
2453,62
2454,67
2455,71
2456,76
2457,81
2458,86
2459,92
2460,98
2461,104
2462,111
2463,117
2464,124
2465,131
2466,139
2467,146
2468,153
2469,161
2470,168
2471,175
2472,182
2473,190
2474,197
2475,204
2476,211
2477,218
2478,225
2479,232
2480,240
2481,248
2482,256
2483,264
2484,273
2485,282
2486,291
2487,301
2488,310
2489,320
2490,330
2491,340
2492,349
2493,358
2494,366
2495,373
2496,379
2497,383
2498,386
2499,387
2500,387
2501,384
2502,380
2503,374
2504,365
2505,355
2506,342
2507,328
2508,311
2509,293
2510,274
2511,254
2512,233
2513,212
2514,190
2515,168
2516,147
2517,126
2518,105
2519,86
2520,67
2521,50
2522,35
2523,20
2524,8
2525,-3
2526,-12
2527,-21
2528,-28
2529,-34
2530,-39
2531,-43
2532,-46
2533,-49
2534,-51
2535,-53
2536,-54
2537,-56
2538,-58
2539,-59
2540,-61
2541,-63
2542,-65
2543,-68
2544,-70
2545,-73
2546,-75
2547,-78
2548,-81
2549,-83
2550,-86
2551,-88
2552,-90
2553,-91
2554,-92
2555,-93
2556,-94
2557,-94
2558,-94
2559,-93
2560,-92
2561,-91
2562,-90
2563,-88
2564,-87
2565,-85
2566,-84
2567,-82
2568,-80
2569,-79
2570,-77
2571,-75
2572,-74
2573,-73
2574,-72
2575,-71
2576,-70
2577,-69
2578,-68
2579,-67
2580,-67
2581,-66
2582,-65
2583,-65
2584,-65
2585,-64
2586,-64
2587,-64
2588,-64
2589,-63
2590,-63
2591,-63
2592,-63
2593,-63
2594,-63
2595,-63
2596,-63
2597,-63
2598,-63
2599,-63
2600,-64
2601,-64
2602,-64
2603,-64
2604,-64
2605,-64
2606,-64
2607,-64
2608,-64
2609,-65
2610,-65
2611,-65
2612,-65
2613,-65
2614,-65
2615,-65
2616,-65
2617,-65
2618,-65
2619,-66
2620,-66
2621,-66
2622,-66
2623,-66
2624,-66
2625,-66
2626,-66
2627,-66
2628,-66
2629,-66
2630,-66
2631,-66
2632,-66
2633,-66
2634,-66
2635,-66
2636,-66
2637,-66
2638,-66
2639,-66
2640,-66
2641,-66
2642,-66
2643,-66
2644,-66
2645,-66
2646,-65
2647,-65
2648,-65
2649,-65
2650,-65
2651,-64
2652,-64
2653,-64
2654,-64
2655,-63
2656,-63
2657,-63
2658,-63
2659,-62
2660,-62
2661,-62
2662,-62
2663,-61
2664,-61
2665,-61
2666,-61
2667,-60
2668,-60
2669,-60
2670,-60
2671,-60
2672,-60
2673,-59
2674,-59
2675,-59
2676,-59
2677,-59
2678,-59
2679,-59
2680,-59
2681,-59
2682,-59
2683,-59
2684,-59
2685,-59
2686,-60
2687,-60
2688,-60
2689,-60
2690,-60
2691,-60
2692,-61
2693,-61
2694,-61
2695,-61
2696,-61
2697,-62
2698,-62
2699,-62
2700,-62
2701,-63
2702,-63
2703,-63
2704,-63
2705,-63
2706,-64
2707,-64
2708,-64
2709,-64
2710,-64
2711,-65
2712,-65
2713,-65
2714,-65
2715,-65
2716,-65
2717,-66
2718,-66
2719,-66
2720,-66
2721,-66
2722,-66
2723,-66
2724,-67
2725,-67
2726,-67
2727,-67
2728,-67
2729,-67
2730,-68
2731,-68
2732,-68
2733,-68
2734,-69
2735,-69
2736,-69
2737,-69
2738,-70
2739,-70
2740,-70
2741,-70
2742,-71
2743,-71
2744,-71
2745,-72
2746,-72
2747,-72
2748,-72
2749,-72
2750,-73
2751,-73
2752,-73
2753,-73
2754,-73
2755,-73
2756,-73
2757,-73
2758,-73
2759,-73
2760,-73
2761,-73
2762,-73
2763,-72
2764,-72
2765,-71
2766,-71
2767,-70
2768,-70
2769,-69
2770,-68
2771,-68
2772,-67
2773,-66
2774,-65
2775,-64
2776,-63
2777,-62
2778,-60
2779,-59
2780,-58
2781,-57
2782,-55
2783,-54
2784,-53
2785,-51
2786,-50
2787,-49
2788,-47
2789,-46
2790,-45
2791,-43
2792,-42
2793,-41
2794,-40
2795,-39
2796,-37
2797,-36
2798,-35
2799,-34
2800,-34
2801,-33
2802,-32
2803,-31
2804,-31
2805,-30
2806,-30
2807,-30
2808,-29
2809,-29
2810,-29
2811,-29
2812,-30
2813,-30
2814,-30
2815,-31
2816,-31
2817,-32
2818,-33
2819,-34
2820,-35
2821,-36
2822,-37
2823,-39
2824,-40
2825,-42
2826,-43
2827,-45
2828,-47
2829,-49
2830,-51
2831,-53
2832,-55
2833,-58
2834,-60
2835,-62
2836,-65
2837,-67
2838,-70
2839,-72
2840,-75
2841,-77
2842,-80
2843,-82
2844,-85
2845,-87
2846,-90
2847,-92
2848,-94
2849,-95
2850,-97
2851,-98
2852,-99
2853,-100
2854,-100
2855,-100
2856,-99
2857,-98
2858,-97
2859,-95
2860,-93
2861,-91
2862,-89
2863,-87
2864,-85
2865,-83
2866,-82
2867,-81
2868,-80
2869,-81
2870,-82
2871,-83
2872,-85
2873,-86
2874,-87
2875,-87
2876,-85
2877,-81
2878,-76
2879,-70
2880,-65
2881,-60
2882,-58
2883,-59
2884,-63
2885,-70
2886,-79
2887,-89
2888,-96
2889,-98
2890,-92
2891,-75
2892,-46
2893,-3
2894,53
2895,122
2896,200
2897,281
2898,362
2899,438
2900,502
2901,550
2902,578
2903,582
2904,563
2905,525
2906,470
2907,400
2908,317
2909,220
2910,116
2911,19
2912,-60
2913,-108
2914,-124
2915,-116
2916,-96
2917,-75
2918,-57
2919,-41
2920,-27
2921,-14
2922,-2
2923,4
2924,5
2925,1
2926,-6
2927,-14
2928,-21
2929,-26
2930,-29
2931,-29
2932,-27
2933,-23
2934,-17
2935,-12
2936,-7
2937,-4
2938,-1
2939,0
2940,0
2941,0
2942,-1
2943,-2
2944,-4
2945,-6
2946,-8
2947,-10
2948,-11
2949,-13
2950,-14
2951,-14
2952,-14
2953,-14
2954,-13
2955,-12
2956,-11
2957,-9
2958,-8
2959,-6
2960,-3
2961,-1
2962,0
2963,3
2964,5
2965,8
2966,10
2967,12
2968,14
2969,16
2970,18
2971,20
2972,22
2973,23
2974,25
2975,26
2976,28
2977,29
2978,31
2979,32
2980,34
2981,36
2982,38
2983,40
2984,42
2985,44
2986,47
2987,49
2988,52
2989,55
2990,59
2991,62
2992,66
2993,71
2994,75
2995,80
2996,86
2997,91
2998,98
2999,104
3000,111
3001,117
3002,125
3003,132
3004,139
3005,147
3006,155
3007,163
3008,170
3009,178
3010,186
3011,194
3012,202
3013,210
3014,217
3015,225
3016,233
3017,242
3018,250
3019,259
3020,268
3021,277
3022,287
3023,297
3024,307
3025,318
3026,329
3027,339
3028,350
3029,361
3030,372
3031,382
3032,392
3033,401
3034,408
3035,414
3036,419
3037,422
3038,424
3039,424
3040,421
3041,417
3042,411
3043,403
3044,392
3045,380
3046,365
3047,349
3048,331
3049,312
3050,292
3051,271
3052,250
3053,228
3054,207
3055,185
3056,164
3057,143
3058,122
3059,103
3060,85
3061,69
3062,54
3063,40
3064,28
3065,17
3066,8
3067,0
3068,-6
3069,-12
3070,-16
3071,-20
3072,-23
3073,-25
3074,-26
3075,-27
3076,-28
3077,-29
3078,-29
3079,-30
3080,-31
3081,-33
3082,-34
3083,-36
3084,-37
3085,-39
3086,-41
3087,-43
3088,-45
3089,-47
3090,-50
3091,-52
3092,-53
3093,-55
3094,-56
3095,-57
3096,-58
3097,-58
3098,-58
3099,-58
3100,-57
3101,-57
3102,-56
3103,-55
3104,-54
3105,-53
3106,-51
3107,-50
3108,-49
3109,-48
3110,-47
3111,-46
3112,-45
3113,-44
3114,-44
3115,-43
3116,-43
3117,-43
3118,-42
3119,-42
3120,-42
3121,-42
3122,-42
3123,-42
3124,-42
3125,-42
3126,-42
3127,-42
3128,-42
3129,-42
3130,-43
3131,-43
3132,-43
3133,-43
3134,-43
3135,-43
3136,-43
3137,-43
3138,-43
3139,-42
3140,-42
3141,-42
3142,-42
3143,-42
3144,-42
3145,-41
3146,-41
3147,-41
3148,-41
3149,-41
3150,-40
3151,-40
3152,-40
3153,-40
3154,-39
3155,-39
3156,-39
3157,-39
3158,-39
3159,-39
3160,-39
3161,-39
3162,-39
3163,-39
3164,-39
3165,-39
3166,-39
3167,-40
3168,-40
3169,-40
3170,-41
3171,-41
3172,-41
3173,-42
3174,-42
3175,-43
3176,-44
3177,-44
3178,-45
3179,-45
3180,-46
3181,-46
3182,-47
3183,-48
3184,-48
3185,-49
3186,-49
3187,-50
3188,-50
3189,-51
3190,-51
3191,-52
3192,-52
3193,-53
3194,-53
3195,-53
3196,-54
3197,-54
3198,-54
3199,-54
3200,-54
3201,-54
3202,-54
3203,-55
3204,-55
3205,-55
3206,-55
3207,-54
3208,-54
3209,-54
3210,-54
3211,-54
3212,-54
3213,-54
3214,-54
3215,-54
3216,-54
3217,-54
3218,-54
3219,-53
3220,-53
3221,-53
3222,-53
3223,-53
3224,-54
3225,-54
3226,-54
3227,-54
3228,-54
3229,-54
3230,-55
3231,-55
3232,-55
3233,-55
3234,-56
3235,-56
3236,-57
3237,-57
3238,-57
3239,-58
3240,-58
3241,-59
3242,-59
3243,-60
3244,-60
3245,-61
3246,-61
3247,-62
3248,-62
3249,-62
3250,-63
3251,-63
3252,-63
3253,-64
3254,-64
3255,-64
3256,-64
3257,-64
3258,-65
3259,-65
3260,-65
3261,-65
3262,-65
3263,-65
3264,-64
3265,-64
3266,-64
3267,-64
3268,-64
3269,-63
3270,-63
3271,-63
3272,-62
3273,-62
3274,-62
3275,-61
3276,-61
3277,-61
3278,-60
3279,-60
3280,-59
3281,-59
3282,-59
3283,-59
3284,-58
3285,-58
3286,-58
3287,-58
3288,-57
3289,-57
3290,-57
3291,-57
3292,-57
3293,-57
3294,-57
3295,-57
3296,-57
3297,-57
3298,-57
3299,-57
3300,-57
3301,-57
3302,-57
3303,-57
3304,-58
3305,-58
3306,-58
3307,-58
3308,-58
3309,-58
3310,-57
3311,-57
3312,-57
3313,-57
3314,-57
3315,-56
3316,-56
3317,-55
3318,-55
3319,-54
3320,-54
3321,-53
3322,-53
3323,-52
3324,-51
3325,-50
3326,-49
3327,-48
3328,-47
3329,-46
3330,-46
3331,-44
3332,-43
3333,-42
3334,-41
3335,-40
3336,-39
3337,-38
3338,-37
3339,-37
3340,-36
3341,-35
3342,-34
3343,-33
3344,-33
3345,-32
3346,-32
3347,-31
3348,-31
3349,-31
3350,-31
3351,-31
3352,-31
3353,-31
3354,-31
3355,-32
3356,-32
3357,-33
3358,-34
3359,-35
3360,-36
3361,-37
3362,-38
3363,-40
3364,-41
3365,-43
3366,-44
3367,-46
3368,-48
3369,-50
3370,-52
3371,-55
3372,-57
3373,-59
3374,-62
3375,-64
3376,-67
3377,-69
3378,-72
3379,-74
3380,-77
3381,-80
3382,-83
3383,-85
3384,-88
3385,-91
3386,-94
3387,-96
3388,-99
3389,-101
3390,-103
3391,-105
3392,-107
3393,-108
3394,-109
3395,-110
3396,-110
3397,-110
3398,-110
3399,-109
3400,-108
3401,-107
3402,-106
3403,-105
3404,-103
3405,-102
3406,-102
3407,-101
3408,-101
3409,-102
3410,-104
3411,-106
3412,-109
3413,-112
3414,-115
3415,-117
3416,-119
3417,-120
3418,-119
3419,-116
3420,-112
3421,-108
3422,-105
3423,-103
3424,-104
3425,-107
3426,-114
3427,-124
3428,-135
3429,-145
3430,-150
3431,-148
3432,-138
3433,-115
3434,-78
3435,-28
3436,36
3437,111
3438,193
3439,277
3440,359
3441,432
3442,491
3443,531
3444,548
3445,542
3446,513
3447,463
3448,396
3449,317
3450,232
3451,148
3452,71
3453,5
3454,-45
3455,-80
3456,-99
3457,-104
3458,-97
3459,-83
3460,-65
3461,-46
3462,-30
3463,-19
3464,-12
3465,-10
3466,-13
3467,-18
3468,-24
3469,-30
3470,-34
3471,-37
3472,-37
3473,-35
3474,-32
3475,-28
3476,-24
3477,-21
3478,-18
3479,-16
3480,-15
3481,-15
3482,-16
3483,-18
3484,-20
3485,-22
3486,-25
3487,-27
3488,-29
3489,-32
3490,-33
3491,-35
3492,-36
3493,-36
3494,-37
3495,-36
3496,-36
3497,-35
3498,-33
3499,-31
3500,-29
3501,-27
3502,-25
3503,-22
3504,-20
3505,-17
3506,-14
3507,-11
3508,-9
3509,-6
3510,-4
3511,-2
3512,0
3513,2
3514,4
3515,6
3516,8
3517,10
3518,12
3519,14
3520,16
3521,18
3522,20
3523,23
3524,25
3525,28
3526,30
3527,33
3528,36
3529,40
3530,43
3531,47
3532,51
3533,55
3534,59
3535,64
3536,69
3537,74
3538,80
3539,86
3540,93
3541,99
3542,106
3543,114
3544,121
3545,129
3546,137
3547,145
3548,153
3549,161
3550,170
3551,178
3552,186
3553,194
3554,202
3555,211
3556,219
3557,227
3558,235
3559,243
3560,251
3561,259
3562,268
3563,277
3564,285
3565,295
3566,304
3567,313
3568,323
3569,333
3570,342
3571,352
3572,361
3573,371
3574,379
3575,387
3576,394
3577,400
3578,405
3579,408
3580,410
3581,410
3582,408
3583,405
3584,400
3585,392
3586,383
3587,372
3588,359
3589,344
3590,328
3591,310
3592,291
3593,271
3594,251
3595,230
3596,209
3597,188
3598,167
3599,146
3600,126
3601,107
3602,89
3603,72
3604,57
3605,43
3606,31
3607,20
3608,10
3609,2
3610,-4
3611,-9
3612,-14
3613,-18
3614,-21
3615,-23
3616,-24
3617,-25
3618,-26
3619,-27
3620,-28
3621,-29
3622,-30
3623,-31
3624,-33
3625,-35
3626,-37
3627,-39
3628,-42
3629,-44
3630,-47
3631,-50
3632,-53
3633,-56
3634,-58
3635,-60
3636,-62
3637,-64
3638,-65
3639,-66
3640,-67
3641,-67
3642,-67
3643,-67
3644,-67
3645,-66
3646,-65
3647,-64
3648,-63
3649,-62
3650,-61
3651,-61
3652,-60
3653,-59
3654,-58
3655,-57
3656,-56
3657,-56
3658,-56
3659,-57
3660,-59
3661,-59
3662,-58
3663,-54
3664,-34
3665,-25
3666,-68
3667,-107
3668,-71
3669,-25
3670,-34
3671,-55
3672,-58
3673,-57
3674,-57
3675,-56
3676,-55
3677,-55
3678,-55
3679,-55
3680,-55
3681,-55
3682,-56
3683,-56
3684,-56
3685,-56
3686,-56
3687,-56
3688,-56
3689,-56
3690,-56
3691,-56
3692,-56
3693,-55
3694,-55
3695,-55
3696,-55
3697,-55
3698,-55
3699,-55
3700,-55
3701,-55
3702,-55
3703,-54
3704,-54
3705,-54
3706,-54
3707,-54
3708,-54
3709,-54
3710,-54
3711,-54
3712,-54
3713,-54
3714,-54
3715,-54
3716,-54
3717,-54
3718,-54
3719,-55
3720,-54
3721,-54
3722,-54
3723,-54
3724,-54
3725,-54
3726,-54
3727,-55
3728,-56
3729,-58
3730,-59
3731,-60
3732,-61
3733,-62
3734,-65
3735,-69
3736,-68
3737,-62
3738,-69
3739,-63
3740,8
3741,67
3742,-34
3743,-217
3744,-227
3745,-55
3746,43
3747,-16
3748,-83
3749,-79
3750,-61
3751,-62
3752,-64
3753,-63
3754,-63
3755,-65
3756,-66
3757,-67
3758,-67
3759,-66
3760,-66
3761,-66
3762,-65
3763,-65
3764,-65
3765,-65
3766,-65
3767,-65
3768,-65
3769,-65
3770,-64
3771,-64
3772,-64
3773,-64
3774,-64
3775,-64
3776,-64
3777,-64
3778,-64
3779,-64
3780,-64
3781,-64
3782,-64
3783,-64
3784,-64
3785,-64
3786,-64
3787,-64
3788,-64
3789,-65
3790,-65
3791,-65
3792,-65
3793,-66
3794,-66
3795,-66
3796,-67
3797,-67
3798,-68
3799,-68
3800,-68
3801,-69
3802,-69
3803,-70
3804,-70
3805,-71
3806,-71
3807,-72
3808,-72
3809,-73
3810,-73
3811,-74
3812,-74
3813,-74
3814,-75
3815,-75
3816,-76
3817,-76
3818,-76
3819,-77
3820,-77
3821,-78
3822,-78
3823,-78
3824,-79
3825,-79
3826,-79
3827,-79
3828,-80
3829,-80
3830,-80
3831,-80
3832,-81
3833,-81
3834,-81
3835,-81
3836,-81
3837,-81
3838,-81
3839,-81
3840,-81
3841,-81
3842,-81
3843,-81
3844,-81
3845,-81
3846,-81
3847,-81
3848,-81
3849,-81
3850,-80
3851,-80
3852,-80
3853,-79
3854,-79
3855,-78
3856,-78
3857,-77
3858,-76
3859,-76
3860,-75
3861,-74
3862,-73
3863,-72
3864,-71
3865,-70
3866,-69
3867,-68
3868,-67
3869,-66
3870,-65
3871,-63
3872,-62
3873,-61
3874,-60
3875,-58
3876,-57
3877,-56
3878,-54
3879,-53
3880,-52
3881,-51
3882,-49
3883,-48
3884,-47
3885,-46
3886,-45
3887,-44
3888,-44
3889,-43
3890,-42
3891,-42
3892,-41
3893,-41
3894,-40
3895,-40
3896,-40
3897,-40
3898,-40
3899,-41
3900,-41
3901,-41
3902,-42
3903,-43
3904,-44
3905,-45
3906,-46
3907,-47
3908,-48
3909,-50
3910,-52
3911,-53
3912,-55
3913,-57
3914,-59
3915,-61
3916,-63
3917,-65
3918,-67
3919,-69
3920,-72
3921,-74
3922,-76
3923,-79
3924,-81
3925,-84
3926,-86
3927,-88
3928,-91
3929,-93
3930,-95
3931,-97
3932,-99
3933,-100
3934,-101
3935,-102
3936,-103
3937,-103
3938,-103
3939,-102
3940,-101
3941,-100
3942,-99
3943,-97
3944,-95
3945,-93
3946,-91
3947,-90
3948,-88
3949,-87
3950,-87
3951,-87
3952,-87
3953,-89
3954,-91
3955,-93
3956,-96
3957,-99
3958,-100
3959,-100
3960,-99
3961,-95
3962,-90
3963,-84
3964,-78
3965,-74
3966,-72
3967,-73
3968,-77
3969,-85
3970,-95
3971,-105
3972,-111
3973,-112
3974,-104
3975,-84
3976,-51
3977,-3
3978,58
3979,131
3980,210
3981,291
3982,370
3983,444
3984,510
3985,559
3986,586
3987,585
3988,554
3989,499
3990,427
3991,341
3992,247
3993,147
3994,51
3995,-28
3996,-82
3997,-105
3998,-106
3999,-94
4000,-80
4001,-68
4002,-56
4003,-42
4004,-28
4005,-14
4006,-4
4007,0
4008,0
4009,-4
4010,-9
4011,-16
4012,-22
4013,-26
4014,-28
4015,-29
4016,-28
4017,-26
4018,-24
4019,-21
4020,-18
4021,-16
4022,-15
4023,-15
4024,-16
4025,-17
4026,-18
4027,-20
4028,-23
4029,-25
4030,-27
4031,-29
4032,-30
4033,-32
4034,-32
4035,-33
4036,-33
4037,-32
4038,-31
4039,-30
4040,-28
4041,-26
4042,-24
4043,-22
4044,-20
4045,-17
4046,-14
4047,-12
4048,-9
4049,-7
4050,-4
4051,-2
4052,0
4053,1
4054,3
4055,5
4056,7
4057,9
4058,11
4059,13
4060,15
4061,16
4062,18
4063,20
4064,22
4065,24
4066,26
4067,29
4068,31
4069,34
4070,37
4071,40
4072,43
4073,47
4074,50
4075,54
4076,59
4077,64
4078,69
4079,74
4080,80
4081,86
4082,93
4083,100
4084,107
4085,114
4086,122
4087,130
4088,138
4089,146
4090,155
4091,163
4092,172
4093,180
4094,189
4095,197
4096,205
4097,214
4098,222
4099,230
4100,238
4101,247
4102,255
4103,264
4104,273
4105,282
4106,292
4107,302
4108,312
4109,322
4110,333
4111,344
4112,355
4113,366
4114,376
4115,387
4116,396
4117,405
4118,413
4119,420
4120,425
4121,428
4122,430
4123,430
4124,428
4125,424
4126,418
4127,409
4128,398
4129,386
4130,371
4131,354
4132,336
4133,316
4134,295
4135,273
4136,251
4137,229
4138,206
4139,183
4140,161
4141,140
4142,119
4143,100
4144,81
4145,65
4146,50
4147,36
4148,24
4149,14
4150,5
4151,-1
4152,-8
4153,-13
4154,-17
4155,-20
4156,-22
4157,-23
4158,-24
4159,-25
4160,-26
4161,-26
4162,-27
4163,-28
4164,-30
4165,-31
4166,-33
4167,-35
4168,-37
4169,-40
4170,-42
4171,-45
4172,-47
4173,-50
4174,-53
4175,-55
4176,-58
4177,-60
4178,-62
4179,-63
4180,-64
4181,-65
4182,-65
4183,-65
4184,-65
4185,-64
4186,-64
4187,-63
4188,-62
4189,-61
4190,-60
4191,-59
4192,-58
4193,-57
4194,-56
4195,-55
4196,-54
4197,-53
4198,-53
4199,-52
4200,-52
4201,-51
4202,-51
4203,-51
4204,-50
4205,-50
4206,-50
4207,-50
4208,-49
4209,-49
4210,-49
4211,-49
4212,-49
4213,-48
4214,-48
4215,-48
4216,-48
4217,-48
4218,-47
4219,-47
4220,-47
4221,-47
4222,-46
4223,-46
4224,-46
4225,-45
4226,-45
4227,-44
4228,-44
4229,-43
4230,-43
4231,-42
4232,-42
4233,-41
4234,-41
4235,-40
4236,-40
4237,-39
4238,-38
4239,-38
4240,-37
4241,-37
4242,-36
4243,-36
4244,-35
4245,-34
4246,-34
4247,-33
4248,-33
4249,-32
4250,-32
4251,-31
4252,-31
4253,-31
4254,-30
4255,-30
4256,-29
4257,-29
4258,-29
4259,-28
4260,-28
4261,-28
4262,-27
4263,-27
4264,-27
4265,-27
4266,-26
4267,-26
4268,-26
4269,-26
4270,-26
4271,-26
4272,-26
4273,-26
4274,-26
4275,-26
4276,-26
4277,-26
4278,-26
4279,-26
4280,-26
4281,-26
4282,-26
4283,-26
4284,-27
4285,-27
4286,-27
4287,-28
4288,-28
4289,-28
4290,-29
4291,-29
4292,-30
4293,-30
4294,-31
4295,-31
4296,-32
4297,-32
4298,-33
4299,-33
4300,-34
4301,-35
4302,-35
4303,-36
4304,-37
4305,-37
4306,-38
4307,-39
4308,-39
4309,-40
4310,-41
4311,-41
4312,-42
4313,-43
4314,-43
4315,-44
4316,-44
4317,-45
4318,-45
4319,-46
4320,-46
4321,-47
4322,-47
4323,-48
4324,-48
4325,-49
4326,-49
4327,-49
4328,-50
4329,-50
4330,-50
4331,-51
4332,-51
4333,-51
4334,-51
4335,-52
4336,-52
4337,-52
4338,-53
4339,-53
4340,-53
4341,-54
4342,-54
4343,-55
4344,-55
4345,-55
4346,-56
4347,-56
4348,-57
4349,-57
4350,-58
4351,-58
4352,-59
4353,-60
4354,-60
4355,-61
4356,-61
4357,-62
4358,-62
4359,-63
4360,-64
4361,-64
4362,-65
4363,-65
4364,-66
4365,-66
4366,-67
4367,-67
4368,-68
4369,-68
4370,-68
4371,-69
4372,-69
4373,-69
4374,-69
4375,-69
4376,-69
4377,-69
4378,-69
4379,-68
4380,-68
4381,-68
4382,-67
4383,-67
4384,-67
4385,-66
4386,-65
4387,-65
4388,-64
4389,-63
4390,-63
4391,-62
4392,-61
4393,-60
4394,-59
4395,-58
4396,-58
4397,-57
4398,-56
4399,-55
4400,-54
4401,-54
4402,-53
4403,-52
4404,-51
4405,-51
4406,-50
4407,-50
4408,-49
4409,-49
4410,-49
4411,-48
4412,-48
4413,-48
4414,-48
4415,-48
4416,-48
4417,-49
4418,-49
4419,-49
4420,-50
4421,-50
4422,-51
4423,-52
4424,-53
4425,-54
4426,-55
4427,-56
4428,-58
4429,-59
4430,-60
4431,-62
4432,-64
4433,-65
4434,-67
4435,-69
4436,-71
4437,-72
4438,-74
4439,-76
4440,-78
4441,-80
4442,-82
4443,-85
4444,-87
4445,-89
4446,-91
4447,-93
4448,-95
4449,-97
4450,-99
4451,-100
4452,-102
4453,-103
4454,-104
4455,-105
4456,-105
4457,-105
4458,-104
4459,-104
4460,-102
4461,-101
4462,-99
4463,-98
4464,-96
4465,-94
4466,-92
4467,-91
4468,-90
4469,-90
4470,-90
4471,-91
4472,-92
4473,-94
4474,-96
4475,-97
4476,-98
4477,-98
4478,-96
4479,-92
4480,-88
4481,-84
4482,-80
4483,-79
4484,-80
4485,-85
4486,-95
4487,-108
4488,-123
4489,-138
4490,-149
4491,-154
4492,-149
4493,-131
4494,-98
4495,-50
4496,13
4497,88
4498,172
4499,259
4500,344
4501,420
4502,482
4503,525
4504,545
4505,542
4506,515
4507,466
4508,399
4509,320
4510,233
4511,145
4512,62
4513,-12
4514,-75
4515,-122
4516,-153
4517,-170
4518,-173
4519,-166
4520,-150
4521,-128
4522,-104
4523,-80
4524,-59
4525,-42
4526,-30
4527,-22
4528,-19
4529,-21
4530,-26
4531,-34
4532,-42
4533,-50
4534,-57
4535,-63
4536,-66
4537,-67
4538,-65
4539,-61
4540,-56
4541,-51
4542,-47
4543,-43
4544,-40
4545,-39
4546,-38
4547,-39
4548,-40
4549,-42
4550,-43
4551,-44
4552,-44
4553,-45
4554,-44
4555,-44
4556,-43
4557,-41
4558,-40
4559,-38
4560,-36
4561,-34
4562,-32
4563,-30
4564,-27
4565,-25
4566,-23
4567,-20
4568,-18
4569,-16
4570,-14
4571,-12
4572,-10
4573,-8
4574,-7
4575,-5
4576,-4
4577,-2
4578,-1
4579,0
4580,1
4581,3
4582,4
4583,6
4584,8
4585,10
4586,12
4587,14
4588,16
4589,19
4590,22
4591,25
4592,28
4593,32
4594,36
4595,41
4596,45
4597,50
4598,56
4599,62
4600,68
4601,75
4602,82
4603,89
4604,96
4605,104
4606,112
4607,120
4608,128
4609,136
4610,145
4611,153
4612,161
4613,170
4614,178
4615,186
4616,195
4617,203
4618,212
4619,221
4620,230
4621,240
4622,250
4623,261
4624,272
4625,283
4626,295
4627,307
4628,319
4629,331
4630,344
4631,356
4632,368
4633,380
4634,391
4635,401
4636,409
4637,416
4638,421
4639,425
4640,427
4641,426
4642,424
4643,419
4644,412
4645,403
4646,391
4647,378
4648,362
4649,345
4650,326
4651,307
4652,286
4653,265
4654,244
4655,222
4656,201
4657,180
4658,160
4659,140
4660,122
4661,105
4662,89
4663,75
4664,62
4665,51
4666,41
4667,32
4668,25
4669,18
4670,13
4671,8
4672,4
4673,0
4674,-2
4675,-5
4676,-7
4677,-10
4678,-13
4679,-16
4680,-19
4681,-22
4682,-25
4683,-29
4684,-33
4685,-36
4686,-40
4687,-44
4688,-47
4689,-51
4690,-54
4691,-57
4692,-60
4693,-62
4694,-64
4695,-65
4696,-66
4697,-67
4698,-67
4699,-67
4700,-67
4701,-66
4702,-65
4703,-64
4704,-63
4705,-61
4706,-60
4707,-58
4708,-57
4709,-55
4710,-54
4711,-53
4712,-51
4713,-50
4714,-49
4715,-48
4716,-47
4717,-47
4718,-46
4719,-45
4720,-45
4721,-45
4722,-44
4723,-44
4724,-44
4725,-44
4726,-44
4727,-44
4728,-44
4729,-44
4730,-45
4731,-45
4732,-45
4733,-46
4734,-46
4735,-47
4736,-47
4737,-48
4738,-49
4739,-49
4740,-50
4741,-51
4742,-51
4743,-52
4744,-53
4745,-53
4746,-54
4747,-54
4748,-55
4749,-56
4750,-56
4751,-57
4752,-57
4753,-58
4754,-58
4755,-59
4756,-59
4757,-60
4758,-60
4759,-60
4760,-61
4761,-61
4762,-61
4763,-62
4764,-62
4765,-62
4766,-62
4767,-62
4768,-63
4769,-63
4770,-63
4771,-63
4772,-63
4773,-63
4774,-63
4775,-64
4776,-64
4777,-64
4778,-64
4779,-64
4780,-64
4781,-64
4782,-65
4783,-65
4784,-65
4785,-65
4786,-65
4787,-66
4788,-66
4789,-66
4790,-66
4791,-66
4792,-67
4793,-67
4794,-67
4795,-67
4796,-68
4797,-68
4798,-68
4799,-68
4800,-69
4801,-69
4802,-69
4803,-69
4804,-70
4805,-70
4806,-70
4807,-70
4808,-71
4809,-71
4810,-71
4811,-71
4812,-72
4813,-72
4814,-72
4815,-72
4816,-72
4817,-73
4818,-73
4819,-73
4820,-73
4821,-73
4822,-73
4823,-74
4824,-74
4825,-74
4826,-74
4827,-74
4828,-74
4829,-74
4830,-74
4831,-75
4832,-75
4833,-75
4834,-75
4835,-75
4836,-75
4837,-75
4838,-75
4839,-76
4840,-76
4841,-76
4842,-76
4843,-76
4844,-76
4845,-76
4846,-77
4847,-77
4848,-77
4849,-77
4850,-77
4851,-78
4852,-78
4853,-78
4854,-78
4855,-78
4856,-79
4857,-79
4858,-79
4859,-79
4860,-79
4861,-80
4862,-80
4863,-80
4864,-80
4865,-80
4866,-80
4867,-80
4868,-80
4869,-80
4870,-80
4871,-80
4872,-80
4873,-80
4874,-79
4875,-79
4876,-78
4877,-78
4878,-77
4879,-77
4880,-76
4881,-75
4882,-75
4883,-74
4884,-73
4885,-72
4886,-71
4887,-70
4888,-68
4889,-67
4890,-66
4891,-65
4892,-63
4893,-62
4894,-60
4895,-59
4896,-57
4897,-56
4898,-54
4899,-53
4900,-51
4901,-49
4902,-48
4903,-46
4904,-45
4905,-43
4906,-42
4907,-40
4908,-39
4909,-37
4910,-36
4911,-35
4912,-34
4913,-33
4914,-32
4915,-31
4916,-30
4917,-29
4918,-28
4919,-28
4920,-27
4921,-27
4922,-27
4923,-26
4924,-26
4925,-26
4926,-26
4927,-26
4928,-27
4929,-27
4930,-27
4931,-28
4932,-29
4933,-29
4934,-30
4935,-31
4936,-32
4937,-33
4938,-35
4939,-36
4940,-37
4941,-39
4942,-40
4943,-42
4944,-44
4945,-46
4946,-47
4947,-49
4948,-51
4949,-53
4950,-55
4951,-58
4952,-60
4953,-62
4954,-64
4955,-67
4956,-69
4957,-71
4958,-74
4959,-76
4960,-78
4961,-81
4962,-83
4963,-84
4964,-86
4965,-88
4966,-89
4967,-90
4968,-91
4969,-91
4970,-91
4971,-90
4972,-90
4973,-89
4974,-88
4975,-87
4976,-86
4977,-85
4978,-84
4979,-84
4980,-84
4981,-84
4982,-85
4983,-87
4984,-89
4985,-93
4986,-97
4987,-101
4988,-104
4989,-107
4990,-109
4991,-109
4992,-107
4993,-104
4994,-99
4995,-94
4996,-91
4997,-90
4998,-92
4999,-97
5000,-104
5001,-114
5002,-124
5003,-131
5004,-132
5005,-125
5006,-106
5007,-75
5008,-30
5009,28
5010,98
5011,177
5012,259
5013,340
5014,415
5015,479
5016,526
5017,554
5018,560
5019,544
5020,507
5021,454
5022,388
5023,313
5024,230
5025,143
5026,60
5027,-11
5028,-65
5029,-95
5030,-104
5031,-101
5032,-89
5033,-78
5034,-66
5035,-55
5036,-44
5037,-35
5038,-29
5039,-27
5040,-28
5041,-31
5042,-36
5043,-40
5044,-42
5045,-43
5046,-41
5047,-38
5048,-33
5049,-28
5050,-23
5051,-18
5052,-14
5053,-11
5054,-9
5055,-8
5056,-8
5057,-9
5058,-10
5059,-12
5060,-14
5061,-16
5062,-19
5063,-21
5064,-23
5065,-24
5066,-26
5067,-27
5068,-27
5069,-27
5070,-27
5071,-26
5072,-25
5073,-24
5074,-22
5075,-20
5076,-18
5077,-16
5078,-14
5079,-12
5080,-10
5081,-7
5082,-5
5083,-3
5084,-1
5085,0
5086,1
5087,3
5088,4
5089,6
5090,7
5091,9
5092,10
5093,12
5094,13
5095,15
5096,17
5097,19
5098,21
5099,23
5100,26
5101,29
5102,31
5103,35
5104,38
5105,42
5106,46
5107,50
5108,55
5109,60
5110,65
5111,71
5112,77
5113,83
5114,90
5115,97
5116,104
5117,112
5118,120
5119,128
5120,136
5121,144
5122,153
5123,161
5124,169
5125,178
5126,186
5127,195
5128,203
5129,211
5130,220
5131,228
5132,236
5133,245
5134,254
5135,263
5136,272
5137,281
5138,291
5139,301
5140,310
5141,320
5142,330
5143,340
5144,350
5145,360
5146,369
5147,377
5148,385
5149,391
5150,397
5151,401
5152,403
5153,404
5154,403
5155,400
5156,396
5157,390
5158,381
5159,371
5160,359
5161,345
5162,329
5163,312
5164,294
5165,275
5166,255
5167,235
5168,214
5169,194
5170,174
5171,154
5172,135
5173,116
5174,99
5175,82
5176,67
5177,53
5178,41
5179,30
5180,20
5181,11
5182,4
5183,-2
5184,-8
5185,-13
5186,-17
5187,-21
5188,-24
5189,-27
5190,-30
5191,-33
5192,-36
5193,-39
5194,-42
5195,-45
5196,-48
5197,-51
5198,-54
5199,-57
5200,-60
5201,-63
5202,-66
5203,-69
5204,-71
5205,-73
5206,-75
5207,-77
5208,-78
5209,-78
5210,-79
5211,-79
5212,-78
5213,-78
5214,-77
5215,-75
5216,-74
5217,-72
5218,-71
5219,-69
5220,-67
5221,-66
5222,-64
5223,-62
5224,-61
5225,-59
5226,-58
5227,-57
5228,-56
5229,-55
5230,-54
5231,-53
5232,-52
5233,-52
5234,-51
5235,-51
5236,-50
5237,-50
5238,-50
5239,-50
5240,-50
5241,-50
5242,-50
5243,-50
5244,-50
5245,-51
5246,-51
5247,-51
5248,-52
5249,-52
5250,-52
5251,-53
5252,-53
5253,-53
5254,-54
5255,-54
5256,-54
5257,-55
5258,-55
5259,-55
5260,-56
5261,-56
5262,-56
5263,-56
5264,-56
5265,-56
5266,-56
5267,-56
5268,-56
5269,-56
5270,-56
5271,-56
5272,-56
5273,-56
5274,-56
5275,-55
5276,-55
5277,-55
5278,-55
5279,-55
5280,-54
5281,-54
5282,-54
5283,-54
5284,-54
5285,-53
5286,-53
5287,-53
5288,-53
5289,-53
5290,-53
5291,-53
5292,-53
5293,-53
5294,-53
5295,-53
5296,-53
5297,-53
5298,-53
5299,-53
5300,-54
5301,-54
5302,-54
5303,-54
5304,-55
5305,-55
5306,-55
5307,-56
5308,-56
5309,-56
5310,-57
5311,-57
5312,-57
5313,-58
5314,-58
5315,-59
5316,-59
5317,-60
5318,-60
5319,-61
5320,-61
5321,-61
5322,-62
5323,-62
5324,-63
5325,-63
5326,-64
5327,-64
5328,-65
5329,-65
5330,-66
5331,-66
5332,-67
5333,-67
5334,-68
5335,-68
5336,-69
5337,-69
5338,-70
5339,-70
5340,-70
5341,-71
5342,-71
5343,-72
5344,-72
5345,-73
5346,-73
5347,-74
5348,-74
5349,-74
5350,-75
5351,-75
5352,-75
5353,-76
5354,-76
5355,-76
5356,-77
5357,-77
5358,-77
5359,-77
5360,-77
5361,-77
5362,-78
5363,-78
5364,-78
5365,-78
5366,-78
5367,-78
5368,-78
5369,-78
5370,-78
5371,-78
5372,-78
5373,-77
5374,-77
5375,-77
5376,-77
5377,-77
5378,-77
5379,-76
5380,-76
5381,-76
5382,-76
5383,-76
5384,-76
5385,-75
5386,-75
5387,-75
5388,-75
5389,-75
5390,-74
5391,-74
5392,-74
5393,-74
5394,-74
5395,-74
5396,-73
5397,-73
5398,-73
5399,-73
5400,-73
5401,-72
5402,-72
5403,-72
5404,-72
5405,-71
5406,-71
5407,-71
5408,-70
5409,-70
5410,-69
5411,-69
5412,-68
5413,-67
5414,-67
5415,-66
5416,-65
5417,-64
5418,-63
5419,-62
5420,-61
5421,-60
5422,-59
5423,-57
5424,-56
5425,-55
5426,-53
5427,-52
5428,-50
5429,-49
5430,-47
5431,-46
5432,-44
5433,-42
5434,-41
5435,-39
5436,-38
5437,-36
5438,-34
5439,-33
5440,-31
5441,-30
5442,-28
5443,-27
5444,-26
5445,-24
5446,-23
5447,-22
5448,-21
5449,-20
5450,-19
5451,-19
5452,-18
5453,-17
5454,-17
5455,-16
5456,-16
5457,-16
5458,-16
5459,-16
5460,-16
5461,-16
5462,-17
5463,-18
5464,-18
5465,-19
5466,-20
5467,-21
5468,-22
5469,-23
5470,-25
5471,-26
5472,-28
5473,-29
5474,-31
5475,-33
5476,-35
5477,-36
5478,-38
5479,-40
5480,-42
5481,-45
5482,-47
5483,-49
5484,-51
5485,-54
5486,-56
5487,-58
5488,-61
5489,-63
5490,-65
5491,-67
5492,-69
5493,-71
5494,-72
5495,-73
5496,-74
5497,-75
5498,-75
5499,-75
5500,-74
5501,-73
5502,-72
5503,-71
5504,-69
5505,-67
5506,-66
5507,-64
5508,-63
5509,-62
5510,-62
5511,-63
5512,-64
5513,-66
5514,-68
5515,-70
5516,-72
5517,-73
5518,-73
5519,-72
5520,-69
5521,-66
5522,-62
5523,-61
5524,-61
5525,-65
5526,-72
5527,-82
5528,-96
5529,-111
5530,-124
5531,-133
5532,-134
5533,-125
5534,-104
5535,-68
5536,-18
5537,45
5538,120
5539,202
5540,286
5541,368
5542,443
5543,505
5544,548
5545,571
5546,570
5547,550
5548,512
5549,459
5550,391
5551,305
5552,206
5553,102
5554,8
5555,-56
5556,-88
5557,-88
5558,-71
5559,-50
5560,-35
5561,-26
5562,-19
5563,-12
5564,-5
5565,0
5566,1
5567,-1
5568,-7
5569,-14
5570,-21
5571,-26
5572,-29
5573,-29
5574,-28
5575,-24
5576,-20
5577,-16
5578,-12
5579,-9
5580,-7
5581,-5
5582,-5
5583,-6
5584,-7
5585,-9
5586,-11
5587,-13
5588,-15
5589,-18
5590,-20
5591,-22
5592,-24
5593,-26
5594,-27
5595,-27
5596,-28
5597,-27
5598,-27
5599,-26
5600,-24
5601,-23
5602,-21
5603,-19
5604,-16
5605,-14
5606,-11
5607,-9
5608,-6
5609,-3
5610,-1
5611,1
5612,3
5613,5
5614,7
5615,10
5616,12
5617,14
5618,16
5619,18
5620,20
5621,22
5622,24
5623,27
5624,29
5625,32
5626,34
5627,37
5628,40
5629,43
5630,46
5631,50
5632,53
5633,57
5634,61
5635,66
5636,71
5637,76
5638,81
5639,87
5640,93
5641,99
5642,106
5643,113
5644,120
5645,127
5646,134
5647,142
5648,150
5649,157
5650,165
5651,173
5652,180
5653,188
5654,196
5655,204
5656,211
5657,219
5658,227
5659,235
5660,244
5661,253
5662,262
5663,272
5664,282
5665,292
5666,302
5667,313
5668,324
5669,335
5670,346
5671,357
5672,368
5673,378
5674,388
5675,396
5676,403
5677,409
5678,413
5679,416
5680,417
5681,416
5682,414
5683,409
5684,402
5685,393
5686,383
5687,370
5688,355
5689,339
5690,322
5691,303
5692,284
5693,264
5694,244
5695,224
5696,203
5697,183
5698,163
5699,144
5700,126
5701,109
5702,92
5703,78
5704,64
5705,52
5706,41
5707,31
5708,22
5709,14
5710,8
5711,2
5712,-2
5713,-7
5714,-11
5715,-14
5716,-17
5717,-20
5718,-22
5719,-25
5720,-28
5721,-31
5722,-34
5723,-37
5724,-40
5725,-43
5726,-47
5727,-50
5728,-53
5729,-56
5730,-59
5731,-62
5732,-65
5733,-67
5734,-69
5735,-71
5736,-72
5737,-73
5738,-74
5739,-74
5740,-74
5741,-74
5742,-74
5743,-73
5744,-72
5745,-71
5746,-70
5747,-69
5748,-68
5749,-67
5750,-66
5751,-65
5752,-64
5753,-64
5754,-63
5755,-62
5756,-62
5757,-62
5758,-61
5759,-61
5760,-61
5761,-61
5762,-61
5763,-61
5764,-61
5765,-62
5766,-62
5767,-62
5768,-62
5769,-63
5770,-63
5771,-63
5772,-64
5773,-64
5774,-64
5775,-65
5776,-65
5777,-65
5778,-66
5779,-66
5780,-66
5781,-66
5782,-66
5783,-67
5784,-67
5785,-67
5786,-67
5787,-67
5788,-67
5789,-67
5790,-67
5791,-67
5792,-67
5793,-67
5794,-66
5795,-66
5796,-66
5797,-66
5798,-66
5799,-66
5800,-66
5801,-65
5802,-65
5803,-65
5804,-65
5805,-65
5806,-65
5807,-65
5808,-65
5809,-65
5810,-65
5811,-65
5812,-65
5813,-65
5814,-66
5815,-66
5816,-66
5817,-66
5818,-67
5819,-67
5820,-67
5821,-68
5822,-68
5823,-68
5824,-69
5825,-69
5826,-70
5827,-70
5828,-71
5829,-71
5830,-71
5831,-72
5832,-72
5833,-73
5834,-73
5835,-73
5836,-74
5837,-74
5838,-75
5839,-75
5840,-75
5841,-75
5842,-75
5843,-76
5844,-76
5845,-76
5846,-76
5847,-76
5848,-76
5849,-76
5850,-76
5851,-76
5852,-76
5853,-76
5854,-75
5855,-75
5856,-75
5857,-75
5858,-74
5859,-74
5860,-74
5861,-73
5862,-73
5863,-73
5864,-72
5865,-72
5866,-72
5867,-71
5868,-71
5869,-70
5870,-70
5871,-69
5872,-69
5873,-69
5874,-68
5875,-68
5876,-68
5877,-67
5878,-67
5879,-66
5880,-66
5881,-66
5882,-66
5883,-65
5884,-65
5885,-65
5886,-64
5887,-64
5888,-64
5889,-64
5890,-64
5891,-63
5892,-63
5893,-63
5894,-63
5895,-63
5896,-63
5897,-62
5898,-62
5899,-62
5900,-62
5901,-62
5902,-62
5903,-61
5904,-61
5905,-61
5906,-61
5907,-61
5908,-60
5909,-60
5910,-60
5911,-60
5912,-60
5913,-59
5914,-59
5915,-59
5916,-59
5917,-59
5918,-58
5919,-58
5920,-58
5921,-58
5922,-58
5923,-57
5924,-57
5925,-57
5926,-57
5927,-57
5928,-57
5929,-56
5930,-56
5931,-56
5932,-56
5933,-56
5934,-56
5935,-56
5936,-56
5937,-56
5938,-57
5939,-57
5940,-57
5941,-57
5942,-57
5943,-57
5944,-58
5945,-58
5946,-58
5947,-58
5948,-58
5949,-59
5950,-59
5951,-59
5952,-59
5953,-59
5954,-60
5955,-60
5956,-60
5957,-60
5958,-60
5959,-60
5960,-60
5961,-61
5962,-61
5963,-61
5964,-60
5965,-60
5966,-60
5967,-60
5968,-60
5969,-60
5970,-59
5971,-59
5972,-59
5973,-58
5974,-58
5975,-57
5976,-57
5977,-56
5978,-56
5979,-55
5980,-55
5981,-54
5982,-54
5983,-53
5984,-52
5985,-52
5986,-51
5987,-51
5988,-50
5989,-49
5990,-49
5991,-48
5992,-48
5993,-47
5994,-47
5995,-46
5996,-45
5997,-45
5998,-45
5999,-44
6000,-44
6001,-43
6002,-43
6003,-42
6004,-42
6005,-43
6006,-43
6007,-42
6008,-41
6009,-38
6010,-36
6011,-37
6012,-41
6013,-47
6014,-66
6015,-72
6016,-23
6017,38
6018,12
6019,-88
6020,-144
6021,-89
6022,8
6023,34
6024,-26
6025,-75
6026,-68
6027,-48
6028,-45
6029,-45
6030,-46
6031,-48
6032,-51
6033,-52
6034,-51
6035,-50
6036,-50
6037,-55
6038,-63
6039,-70
6040,-90
6041,-94
6042,-17
6043,61
6044,-29
6045,-232
6046,-253
6047,-19
6048,147
6049,11
6050,-202
6051,-206
6052,-77
6053,-25
6054,-62
6055,-108
6056,-119
6057,-74
6058,-15
6059,-42
6060,-153
6061,-193
6062,-81
6063,33
6064,-3
6065,-119
6066,-171
6067,-118
6068,-8
6069,30
6070,-66
6071,-152
6072,-104
6073,-22
6074,-22
6075,-89
6076,-146
6077,-113
6078,-3
6079,42
6080,-57
6081,-162
6082,-124
6083,-19
6084,1
6085,-73
6086,-154
6087,-167
6088,-93
6089,-30
6090,-119
6091,-282
6092,-274
6093,-65
6094,104
6095,93
6096,3
6097,41
6098,265
6099,487
6100,519
6101,435
6102,438
6103,585
6104,708
6105,649
6106,483
6107,382
6108,370
6109,341
6110,245
6111,141
6112,64
6113,5
6114,-38
6115,-63
6116,-74
6117,-73
6118,-63
6119,-48
6120,-30
6121,-14
6122,-1
6123,5
6124,8
6125,6
6126,1
6127,-5
6128,-12
6129,-18
6130,-21
6131,-23
6132,-22
6133,-19
6134,-15
6135,-10
6136,-5
6137,-1
6138,1
6139,3
6140,4
6141,4
6142,3
6143,2
6144,0
6145,0
6146,-2
6147,-5
6148,-7
6149,-9
6150,-10
6151,-9
6152,-8
6153,-6
6154,-8
6155,-10
6156,-15
6157,-31
6158,-36
6159,14
6160,77
6161,51
6162,-62
6163,-107
6164,1
6165,100
6166,56
6167,-11
6168,-5
6169,17
6170,22
6171,25
6172,28
6173,29
6174,29
6175,28
6176,27
6177,28
6178,31
6179,36
6180,57
6181,68
6182,26
6183,-10
6184,26
6185,73
6186,67
6187,47
6188,46
6189,50
6190,52
6191,56
6192,61
6193,64
6194,68
6195,72
6196,76
6197,81
6198,86
6199,91
6200,97
6201,103
6202,110
6203,117
6204,124
6205,131
6206,139
6207,146
6208,154
6209,162
6210,170
6211,179
6212,187
6213,195
6214,203
6215,211
6216,219
6217,227
6218,235
6219,243
6220,251
6221,260
6222,269
6223,277
6224,286
6225,296
6226,305
6227,314
6228,324
6229,333
6230,343
6231,352
6232,362
6233,371
6234,379
6235,387
6236,393
6237,399
6238,403
6239,406
6240,407
6241,407
6242,405
6243,401
6244,395
6245,388
6246,378
6247,366
6248,353
6249,338
6250,321
6251,303
6252,283
6253,263
6254,243
6255,221
6256,200
6257,179
6258,158
6259,137
6260,117
6261,99
6262,81
6263,65
6264,50
6265,37
6266,25
6267,15
6268,6
6269,0
6270,-6
6271,-11
6272,-15
6273,-18
6274,-20
6275,-22
6276,-23
6277,-24
6278,-25
6279,-25
6280,-26
6281,-28
6282,-29
6283,-30
6284,-32
6285,-34
6286,-35
6287,-37
6288,-39
6289,-41
6290,-44
6291,-48
6292,-53
6293,-56
6294,-58
6295,-60
6296,-65
6297,-72
6298,-81
6299,-85
6300,-97
6301,-109
6302,-47
6303,77
6304,80
6305,-99
6306,-234
6307,-162
6308,-20
6309,15
6310,-43
6311,-88
6312,-80
6313,-60
6314,-56
6315,-55
6316,-53
6317,-54
6318,-56
6319,-57
6320,-57
6321,-57
6322,-58
6323,-58
6324,-58
6325,-57
6326,-55
6327,-53
6328,-53
6329,-54
6330,-58
6331,-77
6332,-86
6333,-44
6334,-5
6335,-40
6336,-85
6337,-77
6338,-55
6339,-52
6340,-52
6341,-52
6342,-53
6343,-54
6344,-54
6345,-53
6346,-53
6347,-52
6348,-52
6349,-51
6350,-51
6351,-50
6352,-50
6353,-49
6354,-49
6355,-49
6356,-48
6357,-48
6358,-48
6359,-48
6360,-47
6361,-47
6362,-47
6363,-47
6364,-47
6365,-47
6366,-48
6367,-48
6368,-48
6369,-48
6370,-49
6371,-49
6372,-50
6373,-50
6374,-51
6375,-51
6376,-52
6377,-53
6378,-53
6379,-54
6380,-55
6381,-56
6382,-57
6383,-57
6384,-58
6385,-59
6386,-60
6387,-60
6388,-61
6389,-62
6390,-62
6391,-63
6392,-64
6393,-64
6394,-65
6395,-65
6396,-66
6397,-66
6398,-66
6399,-67
6400,-67
6401,-67
6402,-67
6403,-67
6404,-67
6405,-68
6406,-68
6407,-67
6408,-67
6409,-67
6410,-67
6411,-67
6412,-67
6413,-67
6414,-66
6415,-66
6416,-66
6417,-66
6418,-65
6419,-65
6420,-65
6421,-65
6422,-65
6423,-64
6424,-64
6425,-64
6426,-64
6427,-64
6428,-64
6429,-63
6430,-63
6431,-63
6432,-63
6433,-63
6434,-63
6435,-64
6436,-64
6437,-64
6438,-64
6439,-64
6440,-64
6441,-64
6442,-65
6443,-65
6444,-65
6445,-66
6446,-66
6447,-66
6448,-67
6449,-67
6450,-67
6451,-68
6452,-68
6453,-68
6454,-69
6455,-69
6456,-69
6457,-70
6458,-70
6459,-71
6460,-71
6461,-71
6462,-72
6463,-72
6464,-73
6465,-73
6466,-73
6467,-74
6468,-74
6469,-74
6470,-75
6471,-75
6472,-75
6473,-76
6474,-76
6475,-76
6476,-77
6477,-77
6478,-77
6479,-77
6480,-78
6481,-78
6482,-78
6483,-78
6484,-78
6485,-79
6486,-79
6487,-79
6488,-79
6489,-79
6490,-79
6491,-80
6492,-80
6493,-80
6494,-80
6495,-80
6496,-80
6497,-80
6498,-80
6499,-80
6500,-80
6501,-80
6502,-80
6503,-80
6504,-80
6505,-80
6506,-80
6507,-80
6508,-80
6509,-80
6510,-81
6511,-81
6512,-81
6513,-81
6514,-80
6515,-80
6516,-80
6517,-80
6518,-80
6519,-80
6520,-80
6521,-80
6522,-80
6523,-80
6524,-80
6525,-80
6526,-79
6527,-79
6528,-79
6529,-79
6530,-79
6531,-78
6532,-78
6533,-78
6534,-77
6535,-77
6536,-76
6537,-76
6538,-75
6539,-75
6540,-74
6541,-73
6542,-73
6543,-72
6544,-71
6545,-71
6546,-70
6547,-69
6548,-68
6549,-67
6550,-67
6551,-66
6552,-65
6553,-64
6554,-63
6555,-62
6556,-62
6557,-61
6558,-60
6559,-59
6560,-58
6561,-58
6562,-57
6563,-56
6564,-55
6565,-55
6566,-54
6567,-54
6568,-53
6569,-53
6570,-52
6571,-52
6572,-51
6573,-51
6574,-51
6575,-51
6576,-51
6577,-51
6578,-51
6579,-51
6580,-51
6581,-51
6582,-52
6583,-52
6584,-53
6585,-53
6586,-54
6587,-55
6588,-56
6589,-57
6590,-58
6591,-59
6592,-60
6593,-61
6594,-62
6595,-64
6596,-65
6597,-67
6598,-68
6599,-70
6600,-72
6601,-74
6602,-75
6603,-77
6604,-79
6605,-81
6606,-83
6607,-85
6608,-87
6609,-89
6610,-90
6611,-92
6612,-93
6613,-94
6614,-95
6615,-96
6616,-96
6617,-96
6618,-95
6619,-95
6620,-94
6621,-93
6622,-91
6623,-90
6624,-89
6625,-88
6626,-87
6627,-86
6628,-86
6629,-87
6630,-88
6631,-90
6632,-92
6633,-96
6634,-99
6635,-102
6636,-104
6637,-105
6638,-104
6639,-101
6640,-96
6641,-90
6642,-85
6643,-82
6644,-81
6645,-83
6646,-90
6647,-101
6648,-114
6649,-128
6650,-139
6651,-144
6652,-139
6653,-121
6654,-89
6655,-41
6656,22
6657,99
6658,185
6659,276
6660,364
6661,445
6662,512
6663,560
6664,587
6665,588
6666,566
6667,521
6668,458
6669,380
6670,293
6671,204
6672,119
6673,41
6674,-23
6675,-72
6676,-105
6677,-122
6678,-124
6679,-114
6680,-96
6681,-72
6682,-48
6683,-26
6684,-8
6685,3
6686,10
6687,11
6688,7
6689,0
6690,-8
6691,-16
6692,-21
6693,-24
6694,-25
6695,-23
6696,-19
6697,-13
6698,-7
6699,-1
6700,3
6701,7
6702,10
6703,11
6704,11
6705,10
6706,8
6707,6
6708,4
6709,3
6710,1
6711,0
6712,-1
6713,-1
6714,-1
6715,-1
6716,-1
6717,0
6718,0
6719,2
6720,3
6721,5
6722,8
6723,10
6724,12
6725,15
6726,17
6727,19
6728,22
6729,24
6730,26
6731,28
6732,29
6733,31
6734,33
6735,34
6736,36
6737,37
6738,38
6739,40
6740,41
6741,43
6742,44
6743,46
6744,47
6745,49
6746,51
6747,53
6748,56
6749,58
6750,61
6751,64
6752,67
6753,70
6754,74
6755,78
6756,83
6757,87
6758,92
6759,98
6760,104
6761,110
6762,116
6763,123
6764,130
6765,137
6766,144
6767,152
6768,160
6769,167
6770,175
6771,183
6772,191
6773,199
6774,206
6775,214
6776,222
6777,229
6778,237
6779,245
6780,253
6781,261
6782,270
6783,278
6784,287
6785,296
6786,306
6787,315
6788,325
6789,335
6790,345
6791,355
6792,365
6793,375
6794,385
6795,393
6796,401
6797,407
6798,412
6799,416
6800,418
6801,418
6802,417
6803,413
6804,408
6805,401
6806,391
6807,379
6808,365
6809,350
6810,333
6811,314
6812,294
6813,273
6814,252
6815,230
6816,208
6817,186
6818,165
6819,144
6820,124
6821,104
6822,86
6823,70
6824,55
6825,41
6826,29
6827,19
6828,10
6829,2
6830,-3
6831,-9
6832,-13
6833,-16
6834,-19
6835,-21
6836,-23
6837,-24
6838,-25
6839,-26
6840,-28
6841,-29
6842,-31
6843,-33
6844,-36
6845,-38
6846,-41
6847,-44
6848,-46
6849,-49
6850,-52
6851,-55
6852,-58
6853,-60
6854,-62
6855,-64
6856,-65
6857,-66
6858,-67
6859,-67
6860,-67
6861,-66
6862,-66
6863,-65
6864,-64
6865,-63
6866,-61
6867,-60
6868,-58
6869,-57
6870,-55
6871,-53
6872,-52
6873,-51
6874,-49
6875,-48
6876,-47
6877,-46
6878,-45
6879,-45
6880,-44
6881,-43
6882,-42
6883,-42
6884,-41
6885,-41
6886,-40
6887,-40
6888,-40
6889,-39
6890,-39
6891,-39
6892,-38
6893,-38
6894,-38
6895,-38
6896,-38
6897,-38
6898,-38
6899,-38
6900,-37
6901,-37
6902,-37
6903,-37
6904,-37
6905,-37
6906,-37
6907,-37
6908,-37
6909,-37
6910,-37
6911,-37
6912,-37
6913,-38
6914,-38
6915,-39
6916,-39
6917,-38
6918,-36
6919,-34
6920,-33
6921,-35
6922,-40
6923,-65
6924,-77
6925,-23
6926,25
6927,-19
6928,-77
6929,-66
6930,-40
6931,-38
6932,-41
6933,-41
6934,-43
6935,-43
6936,-27
6937,-18
6938,-57
6939,-91
6940,-52
6941,9
6942,3
6943,-88
6944,-158
6945,-71
6946,89
6947,83
6948,-108
6949,-226
6950,-107
6951,76
6952,80
6953,-69
6954,-148
6955,-86
6956,-20
6957,-26
6958,-46
6959,-49
6960,-51
6961,-53
6962,-53
6963,-52
6964,-51
6965,-51
6966,-51
6967,-52
6968,-52
6969,-52
6970,-52
6971,-53
6972,-53
6973,-53
6974,-53
6975,-53
6976,-53
6977,-53
6978,-54
6979,-54
6980,-54
6981,-54
6982,-54
6983,-54
6984,-54
6985,-54
6986,-55
6987,-55
6988,-55
6989,-55
6990,-55
6991,-55
6992,-55
6993,-55
6994,-55
6995,-55
6996,-55
6997,-55
6998,-56
6999,-56
7000,-56
7001,-56
7002,-56
7003,-56
7004,-56
7005,-56
7006,-56
7007,-57
7008,-57
7009,-57
7010,-57
7011,-57
7012,-57
7013,-57
7014,-58
7015,-58
7016,-58
7017,-58
7018,-58
7019,-58
7020,-59
7021,-59
7022,-59
7023,-59
7024,-59
7025,-60
7026,-60
7027,-60
7028,-60
7029,-60
7030,-61
7031,-61
7032,-61
7033,-61
7034,-61
7035,-62
7036,-62
7037,-62
7038,-62
7039,-62
7040,-62
7041,-63
7042,-63
7043,-63
7044,-63
7045,-63
7046,-63
7047,-63
7048,-64
7049,-64
7050,-64
7051,-64
7052,-64
7053,-64
7054,-64
7055,-65
7056,-65
7057,-65
7058,-65
7059,-65
7060,-65
7061,-65
7062,-65
7063,-65
7064,-66
7065,-66
7066,-66
7067,-66
7068,-66
7069,-66
7070,-66
7071,-66
7072,-65
7073,-65
7074,-65
7075,-65
7076,-65
7077,-65
7078,-64
7079,-64
7080,-63
7081,-63
7082,-62
7083,-62
7084,-61
7085,-61
7086,-60
7087,-59
7088,-58
7089,-58
7090,-57
7091,-56
7092,-55
7093,-54
7094,-53
7095,-52
7096,-51
7097,-50
7098,-49
7099,-47
7100,-46
7101,-45
7102,-44
7103,-43
7104,-42
7105,-41
7106,-39
7107,-38
7108,-37
7109,-36
7110,-35
7111,-35
7112,-34
7113,-33
7114,-32
7115,-32
7116,-31
7117,-31
7118,-31
7119,-30
7120,-30
7121,-30
7122,-30
7123,-31
7124,-31
7125,-31
7126,-32
7127,-33
7128,-34
7129,-34
7130,-36
7131,-37
7132,-38
7133,-40
7134,-41
7135,-43
7136,-45
7137,-47
7138,-49
7139,-51
7140,-53
7141,-55
7142,-58
7143,-60
7144,-62
7145,-65
7146,-68
7147,-70
7148,-73
7149,-76
7150,-78
7151,-81
7152,-84
7153,-87
7154,-89
7155,-91
7156,-94
7157,-96
7158,-97
7159,-99
7160,-100
7161,-101
7162,-101
7163,-101
7164,-101
7165,-100
7166,-99
7167,-98
7168,-96
7169,-94
7170,-92
7171,-91
7172,-89
7173,-88
7174,-87
7175,-87
7176,-87
7177,-88
7178,-90
7179,-92
7180,-94
7181,-97
7182,-98
7183,-99
7184,-98
7185,-95
7186,-91
7187,-86
7188,-81
7189,-77
7190,-75
7191,-76
7192,-80
7193,-88
7194,-98
7195,-109
7196,-118
7197,-122
7198,-118
7199,-102
7200,-74
7201,-31
7202,26
7203,97
7204,177
7205,262
7206,347
7207,426
7208,493
7209,542
7210,570
7211,574
7212,554
7213,514
7214,457
7215,387
7216,306
7217,210
7218,108
7219,13
7220,-61
7221,-103
7222,-111
7223,-97
7224,-73
7225,-51
7226,-37
7227,-27
7228,-19
7229,-12
7230,-7
7231,-5
7232,-7
7233,-13
7234,-21
7235,-28
7236,-33
7237,-36
7238,-36
7239,-35
7240,-31
7241,-27
7242,-22
7243,-18
7244,-14
7245,-12
7246,-10
7247,-9
7248,-10
7249,-10
7250,-12
7251,-14
7252,-15
7253,-18
7254,-20
7255,-22
7256,-23
7257,-25
7258,-26
7259,-27
7260,-27
7261,-27
7262,-27
7263,-26
7264,-25
7265,-23
7266,-22
7267,-20
7268,-18
7269,-15
7270,-13
7271,-10
7272,-8
7273,-6
7274,-3
7275,-1
7276,0
7277,2
7278,3
7279,5
7280,7
7281,8
7282,10
7283,11
7284,13
7285,14
7286,16
7287,17
7288,19
7289,20
7290,22
7291,24
7292,26
7293,28
7294,31
7295,33
7296,36
7297,39
7298,43
7299,46
7300,50
7301,55
7302,59
7303,64
7304,70
7305,75
7306,81
7307,88
7308,95
7309,102
7310,109
7311,116
7312,124
7313,132
7314,140
7315,148
7316,156
7317,165
7318,173
7319,181
7320,189
7321,197
7322,206
7323,214
7324,222
7325,230
7326,239
7327,247
7328,256
7329,265
7330,275
7331,284
7332,294
7333,304
7334,314
7335,325
7336,335
7337,345
7338,355
7339,365
7340,374
7341,383
7342,390
7343,396
7344,401
7345,404
7346,406
7347,406
7348,404
7349,400
7350,395
7351,387
7352,377
7353,365
7354,352
7355,336
7356,319
7357,300
7358,281
7359,260
7360,239
7361,218
7362,196
7363,174
7364,153
7365,132
7366,112
7367,93
7368,75
7369,58
7370,43
7371,29
7372,17
7373,6
7374,-3
7375,-11
7376,-18
7377,-25
7378,-30
7379,-34
7380,-37
7381,-40
7382,-43
7383,-45
7384,-47
7385,-48
7386,-50
7387,-52
7388,-55
7389,-57
7390,-59
7391,-62
7392,-65
7393,-67
7394,-70
7395,-73
7396,-75
7397,-78
7398,-80
7399,-82
7400,-84
7401,-86
7402,-87
7403,-87
7404,-88
7405,-88
7406,-87
7407,-86
7408,-85
7409,-84
7410,-83
7411,-81
7412,-79
7413,-78
7414,-76
7415,-74
7416,-72
7417,-70
7418,-69
7419,-67
7420,-65
7421,-64
7422,-63
7423,-62
7424,-61
7425,-60
7426,-59
7427,-58
7428,-57
7429,-57
7430,-56
7431,-56
7432,-56
7433,-55
7434,-55
7435,-55
7436,-55
7437,-55
7438,-55
7439,-55
7440,-55
7441,-55
7442,-56
7443,-56
7444,-56
7445,-56
7446,-57
7447,-57
7448,-57
7449,-57
7450,-58
7451,-58
7452,-58
7453,-58
7454,-59
7455,-59
7456,-59
7457,-59
7458,-59
7459,-59
7460,-59
7461,-59
7462,-59
7463,-60
7464,-60
7465,-59
7466,-59
7467,-59
7468,-59
7469,-59
7470,-59
7471,-59
7472,-59
7473,-59
7474,-59
7475,-59
7476,-59
7477,-58
7478,-58
7479,-58
7480,-58
7481,-58
7482,-58
7483,-58
7484,-58
7485,-58
7486,-58
7487,-58
7488,-58
7489,-58
7490,-58
7491,-58
7492,-58
7493,-58
7494,-58
7495,-58
7496,-58
7497,-58
7498,-58
7499,-58
7500,-58
7501,-58
7502,-58
7503,-59
7504,-59
7505,-59
7506,-59
7507,-59
7508,-59
7509,-59
7510,-59
7511,-59
7512,-59
7513,-60
7514,-60
7515,-60
7516,-60
7517,-60
7518,-60
7519,-60
7520,-60
7521,-60
7522,-60
7523,-60
7524,-60
7525,-60
7526,-60
7527,-60
7528,-60
7529,-60
7530,-60
7531,-60
7532,-60
7533,-60
7534,-60
7535,-60
7536,-60
7537,-60
7538,-60
7539,-60
7540,-60
7541,-60
7542,-60
7543,-60
7544,-60
7545,-60
7546,-60
7547,-60
7548,-60
7549,-60
7550,-60
7551,-60
7552,-60
7553,-60
7554,-60
7555,-60
7556,-60
7557,-61
7558,-61
7559,-61
7560,-61
7561,-61
7562,-61
7563,-61
7564,-61
7565,-61
7566,-61
7567,-61
7568,-61
7569,-61
7570,-61
7571,-61
7572,-61
7573,-61
7574,-61
7575,-61
7576,-61
7577,-61
7578,-61
7579,-61
7580,-61
7581,-61
7582,-61
7583,-61
7584,-62
7585,-62
7586,-62
7587,-62
7588,-62
7589,-62
7590,-62
7591,-62
7592,-63
7593,-63
7594,-63
7595,-63
7596,-63
7597,-64
7598,-64
7599,-64
7600,-64
7601,-65
7602,-65
7603,-65
7604,-65
7605,-65
7606,-66
7607,-66
7608,-66
7609,-66
7610,-67
7611,-67
7612,-67
7613,-67
7614,-67
7615,-67
7616,-67
7617,-67
7618,-67
7619,-67
7620,-67
7621,-66
7622,-66
7623,-66
7624,-65
7625,-65
7626,-64
7627,-64
7628,-63
7629,-63
7630,-62
7631,-61
7632,-60
7633,-59
7634,-58
7635,-57
7636,-56
7637,-55
7638,-53
7639,-52
7640,-51
7641,-49
7642,-48
7643,-47
7644,-45
7645,-44
7646,-42
7647,-41
7648,-39
7649,-38
7650,-36
7651,-34
7652,-33
7653,-32
7654,-30
7655,-29
7656,-27
7657,-26
7658,-25
7659,-24
7660,-23
7661,-22
7662,-21
7663,-20
7664,-19
7665,-18
7666,-18
7667,-17
7668,-17
7669,-17
7670,-16
7671,-16
7672,-16
7673,-17
7674,-17
7675,-17
7676,-18
7677,-18
7678,-19
7679,-20
7680,-21
7681,-22
7682,-23
7683,-24
7684,-26
7685,-27
7686,-29
7687,-30
7688,-32
7689,-34
7690,-36
7691,-37
7692,-39
7693,-41
7694,-43
7695,-46
7696,-48
7697,-50
7698,-52
7699,-54
7700,-56
7701,-58
7702,-60
7703,-63
7704,-65
7705,-67
7706,-69
7707,-71
7708,-73
7709,-75
7710,-77
7711,-78
7712,-79
7713,-80
7714,-81
7715,-81
7716,-81
7717,-80
7718,-79
7719,-78
7720,-76
7721,-74
7722,-71
7723,-69
7724,-66
7725,-64
7726,-62
7727,-60
7728,-58
7729,-58
7730,-58
7731,-58
7732,-59
7733,-61
7734,-62
7735,-62
7736,-62
7737,-60
7738,-58
7739,-55
7740,-52
7741,-50
7742,-50
7743,-52
7744,-58
7745,-66
7746,-78
7747,-91
7748,-103
7749,-113
7750,-116
7751,-110
7752,-93
7753,-63
7754,-20
7755,37
7756,106
7757,184
7758,266
7759,347
7760,423
7761,487
7762,535
7763,564
7764,570
7765,553
7766,514
7767,457
7768,386
7769,305
7770,221
7771,139
7772,65
7773,4
7774,-41
7775,-71
7776,-85
7777,-86
7778,-75
7779,-56
7780,-33
7781,-11
7782,7
7783,20
7784,28
7785,29
7786,25
7787,16
7788,4
7789,-7
7790,-17
7791,-26
7792,-31
7793,-35
7794,-35
7795,-33
7796,-29
7797,-24
7798,-20
7799,-17
7800,-15
7801,-13
7802,-12
7803,-13
7804,-15
7805,-17
7806,-19
7807,-21
7808,-23
7809,-25
7810,-26
7811,-27
7812,-28
7813,-28
7814,-28
7815,-28
7816,-27
7817,-27
7818,-25
7819,-24
7820,-22
7821,-20
7822,-18
7823,-16
7824,-14
7825,-11
7826,-9
7827,-7
7828,-5
7829,-3
7830,-1
7831,0
7832,1
7833,3
7834,4
7835,6
7836,7
7837,8
7838,9
7839,11
7840,12
7841,13
7842,14
7843,16
7844,17
7845,19
7846,21
7847,23
7848,25
7849,27
7850,30
7851,33
7852,36
7853,39
7854,43
7855,47
7856,52
7857,56
7858,62
7859,67
7860,73
7861,79
7862,86
7863,93
7864,100
7865,108
7866,115
7867,123
7868,131
7869,139
7870,147
7871,155
7872,163
7873,171
7874,179
7875,187
7876,195
7877,203
7878,211
7879,220
7880,228
7881,238
7882,247
7883,257
7884,267
7885,278
7886,289
7887,300
7888,311
7889,323
7890,335
7891,346
7892,357
7893,368
7894,378
7895,387
7896,395
7897,401
7898,406
7899,409
7900,410
7901,409
7902,406
7903,401
7904,394
7905,385
7906,373
7907,359
7908,344
7909,327
7910,308
7911,288
7912,267
7913,246
7914,224
7915,203
7916,181
7917,159
7918,139
7919,118
7920,99
7921,81
7922,65
7923,49
7924,36
7925,24
7926,13
7927,4
7928,-3
7929,-9
7930,-15
7931,-19
7932,-23
7933,-26
7934,-28
7935,-29
7936,-30
7937,-31
7938,-32
7939,-33
7940,-35
7941,-36
7942,-37
7943,-39
7944,-41
7945,-43
7946,-45
7947,-48
7948,-50
7949,-52
7950,-55
7951,-57
7952,-60
7953,-62
7954,-63
7955,-65
7956,-66
7957,-67
7958,-67
7959,-68
7960,-67
7961,-67
7962,-66
7963,-66
7964,-65
7965,-64
7966,-63
7967,-61
7968,-60
7969,-59
7970,-58
7971,-56
7972,-55
7973,-54
7974,-54
7975,-53
7976,-52
7977,-52
7978,-51
7979,-50
7980,-50
7981,-50
7982,-49
7983,-49
7984,-49
7985,-49
7986,-49
7987,-48
7988,-48
7989,-48
7990,-48
7991,-48
7992,-48
7993,-48
7994,-48
7995,-48
7996,-47
7997,-47
7998,-47
7999,-47
8000,-47
8001,-47
8002,-47
8003,-47
8004,-47
8005,-47
8006,-47
8007,-46
8008,-46
8009,-46
8010,-46
8011,-46
8012,-46
8013,-46
8014,-46
8015,-46
8016,-46
8017,-45
8018,-45
8019,-45
8020,-45
8021,-45
8022,-45
8023,-45
8024,-45
8025,-45
8026,-46
8027,-46
8028,-46
8029,-46
8030,-46
8031,-46
8032,-46
8033,-46
8034,-47
8035,-47
8036,-47
8037,-47
8038,-47
8039,-47
8040,-48
8041,-48
8042,-48
8043,-48
8044,-48
8045,-49
8046,-49
8047,-49
8048,-49
8049,-49
8050,-50
8051,-50
8052,-50
8053,-50
8054,-50
8055,-51
8056,-51
8057,-51
8058,-51
8059,-51
8060,-52
8061,-52
8062,-52
8063,-52
8064,-52
8065,-52
8066,-53
8067,-53
8068,-53
8069,-53
8070,-53
8071,-54
8072,-54
8073,-54
8074,-54
8075,-54
8076,-55
8077,-55
8078,-55
8079,-55
8080,-55
8081,-56
8082,-56
8083,-56
8084,-56
8085,-56
8086,-56
8087,-57
8088,-57
8089,-57
8090,-57
8091,-57
8092,-57
8093,-57
8094,-57
8095,-57
8096,-57
8097,-57
8098,-57
8099,-57
8100,-57
8101,-57
8102,-57
8103,-57
8104,-57
8105,-57
8106,-57
8107,-57
8108,-57
8109,-57
8110,-56
8111,-56
8112,-56
8113,-56
8114,-56
8115,-56
8116,-56
8117,-56
8118,-56
8119,-56
8120,-56
8121,-56
8122,-56
8123,-56
8124,-56
8125,-56
8126,-56
8127,-56
8128,-56
8129,-56
8130,-56
8131,-56
8132,-57
8133,-57
8134,-57
8135,-57
8136,-58
8137,-58
8138,-58
8139,-59
8140,-59
8141,-59
8142,-60
8143,-60
8144,-61
8145,-61
8146,-61
8147,-62
8148,-62
8149,-63
8150,-64
8151,-64
8152,-65
8153,-65
8154,-66
8155,-66
8156,-67
8157,-67
8158,-68
8159,-69
8160,-69
8161,-70
8162,-70
8163,-71
8164,-71
8165,-72
8166,-72
8167,-73
8168,-73
8169,-73
8170,-74
8171,-74
8172,-74
8173,-74
8174,-74
8175,-75
8176,-75
8177,-75
8178,-75
8179,-75
8180,-74
8181,-74
8182,-74
8183,-74
8184,-73
8185,-73
8186,-73
8187,-72
8188,-72
8189,-71
8190,-70
8191,-69
8192,-69
8193,-68
8194,-67
8195,-66
8196,-65
8197,-64
8198,-63
8199,-62
8200,-61
8201,-60
8202,-58
8203,-57
8204,-56
8205,-55
8206,-53
8207,-52
8208,-51
8209,-50
8210,-48
8211,-47
8212,-46
8213,-45
8214,-43
8215,-42
8216,-41
8217,-40
8218,-39
8219,-38
8220,-37
8221,-36
8222,-35
8223,-34
8224,-33
8225,-32
8226,-32
8227,-31
8228,-30
8229,-30
8230,-29
8231,-29
8232,-29
8233,-28
8234,-28
8235,-28
8236,-28
8237,-28
8238,-28
8239,-29
8240,-29
8241,-30
8242,-30
8243,-31
8244,-32
8245,-33
8246,-34
8247,-35
8248,-36
8249,-37
8250,-39
8251,-40
8252,-42
8253,-44
8254,-45
8255,-47
8256,-49
8257,-51
8258,-53
8259,-55
8260,-58
8261,-60
8262,-62
8263,-65
8264,-67
8265,-70
8266,-72
8267,-75
8268,-77
8269,-79
8270,-81
8271,-83
8272,-85
8273,-87
8274,-88
8275,-89
8276,-90
8277,-90
8278,-90
8279,-90
8280,-89
8281,-88
8282,-86
8283,-85
8284,-83
8285,-82
8286,-80
8287,-79
8288,-79
8289,-78
8290,-78
8291,-79
8292,-81
8293,-83
8294,-86
8295,-88
8296,-90
8297,-91
8298,-90
8299,-88
8300,-85
8301,-80
8302,-75
8303,-72
8304,-71
8305,-72
8306,-77
8307,-85
8308,-95
8309,-106
8310,-115
8311,-119
8312,-115
8313,-101
8314,-74
8315,-33
8316,21
8317,87
8318,163
8319,244
8320,324
8321,400
8322,466
8323,517
8324,550
8325,562
8326,553
8327,522
8328,472
8329,407
8330,331
8331,250
8332,169
8333,93
8334,26
8335,-26
8336,-64
8337,-87
8338,-95
8339,-93
8340,-81
8341,-64
8342,-45
8343,-28
8344,-14
8345,-5
8346,0
8347,0
8348,-2
8349,-6
8350,-10
8351,-14
8352,-16
8353,-15
8354,-13
8355,-10
8356,-6
8357,-2
8358,1
8359,4
8360,6
8361,7
8362,7
8363,6
8364,4
8365,2
8366,0
8367,-2
8368,-5
8369,-8
8370,-10
8371,-12
8372,-14
8373,-15
8374,-16
8375,-16
8376,-16
8377,-16
8378,-15
8379,-14
8380,-13
8381,-11
8382,-10
8383,-8
8384,-6
8385,-4
8386,-2
8387,0
8388,1
8389,3
8390,4
8391,6
8392,7
8393,9
8394,10
8395,11
8396,12
8397,13
8398,15
8399,16
8400,17
8401,18
8402,20
8403,21
8404,23
8405,25
8406,27
8407,29
8408,31
8409,34
8410,36
8411,39
8412,43
8413,46
8414,50
8415,54
8416,59
8417,63
8418,69
8419,74
8420,80
8421,86
8422,93
8423,100
8424,107
8425,115
8426,123
8427,131
8428,139
8429,147
8430,155
8431,164
8432,172
8433,181
8434,189
8435,197
8436,206
8437,214
8438,222
8439,230
8440,238
8441,246
8442,255
8443,263
8444,272
8445,281
8446,290
8447,299
8448,309
8449,318
8450,327
8451,337
8452,346
8453,355
8454,363
8455,371
8456,379
8457,385
8458,390
8459,394
8460,396
8461,397
8462,397
8463,395
8464,391
8465,385
8466,378
8467,369
8468,358
8469,346
8470,332
8471,317
8472,300
8473,283
8474,265
8475,246
8476,227
8477,208
8478,189
8479,170
8480,152
8481,134
8482,116
8483,99
8484,84
8485,69
8486,56
8487,43
8488,32
8489,22
8490,13
8491,5
8492,-1
8493,-7
8494,-13
8495,-17
8496,-21
8497,-25
8498,-28
8499,-30
8500,-33
8501,-35
8502,-37
8503,-40
8504,-42
8505,-44
8506,-46
8507,-49
8508,-51
8509,-53
8510,-56
8511,-58
8512,-60
8513,-62
8514,-64
8515,-65
8516,-67
8517,-68
8518,-68
8519,-69
8520,-69
8521,-68
8522,-68
8523,-67
8524,-66
8525,-65
8526,-64
8527,-62
8528,-61
8529,-59
8530,-57
8531,-56
8532,-54
8533,-53
8534,-52
8535,-50
8536,-49
8537,-48
8538,-47
8539,-47
8540,-46
8541,-45
8542,-45
8543,-44
8544,-44
8545,-44
8546,-44
8547,-43
8548,-43
8549,-43
8550,-43
8551,-44
8552,-44
8553,-44
8554,-44
8555,-44
8556,-45
8557,-45
8558,-45
8559,-46
8560,-46
8561,-46
8562,-47
8563,-47
8564,-47
8565,-48
8566,-48
8567,-48
8568,-49
8569,-49
8570,-49
8571,-49
8572,-50
8573,-50
8574,-50
8575,-50
8576,-50
8577,-50
8578,-51
8579,-51
8580,-51
8581,-51
8582,-51
8583,-51
8584,-51
8585,-51
8586,-51
8587,-50
8588,-50
8589,-50
8590,-50
8591,-50
8592,-50
8593,-49
8594,-49
8595,-49
8596,-49
8597,-48
8598,-48
8599,-48
8600,-48
8601,-47
8602,-47
8603,-47
8604,-46
8605,-46
8606,-46
8607,-45
8608,-45
8609,-45
8610,-44
8611,-44
8612,-44
8613,-43
8614,-43
8615,-43
8616,-42
8617,-42
8618,-42
8619,-41
8620,-41
8621,-41
8622,-41
8623,-40
8624,-40
8625,-40
8626,-40
8627,-39
8628,-39
8629,-39
8630,-39
8631,-38
8632,-38
8633,-38
8634,-38
8635,-38
8636,-38
8637,-37
8638,-37
8639,-37
8640,-37
8641,-37
8642,-37
8643,-37
8644,-37
8645,-37
8646,-36
8647,-36
8648,-36
8649,-36
8650,-36
8651,-36
8652,-36
8653,-36
8654,-36
8655,-36
8656,-36
8657,-36
8658,-36
8659,-36
8660,-36
8661,-36
8662,-36
8663,-36
8664,-36
8665,-36
8666,-36
8667,-36
8668,-36
8669,-37
8670,-37
8671,-37
8672,-37
8673,-38
8674,-38
8675,-38
8676,-39
8677,-39
8678,-40
8679,-40
8680,-41
8681,-41
8682,-42
8683,-43
8684,-43
8685,-44
8686,-45
8687,-45
8688,-46
8689,-47
8690,-48
8691,-49
8692,-49
8693,-50
8694,-51
8695,-52
8696,-53
8697,-53
8698,-54
8699,-55
8700,-56
8701,-57
8702,-57
8703,-58
8704,-59
8705,-60
8706,-60
8707,-61
8708,-62
8709,-62
8710,-63
8711,-63
8712,-64
8713,-64
8714,-65
8715,-65
8716,-66
8717,-66
8718,-67
8719,-67
8720,-67
8721,-68
8722,-68
8723,-68
8724,-69
8725,-69
8726,-70
8727,-70
8728,-70
8729,-71
8730,-71
8731,-71
8732,-72
8733,-72
8734,-73
8735,-73
8736,-73
8737,-74
8738,-74
8739,-75
8740,-75
8741,-76
8742,-76
8743,-77
8744,-77
8745,-78
8746,-78
8747,-79
8748,-79
8749,-80
8750,-80
8751,-80
8752,-81
8753,-81
8754,-81
8755,-82
8756,-82
8757,-82
8758,-82
8759,-83
8760,-83
8761,-83
8762,-83
8763,-83
8764,-83
8765,-82
8766,-82
8767,-82
8768,-82
8769,-82
8770,-81
8771,-81
8772,-81
8773,-80
8774,-79
8775,-79
8776,-79
8777,-79
8778,-79
8779,-78
8780,-76
8781,-74
8782,-72
8783,-71
8784,-72
8785,-75
8786,-94
8787,-103
8788,-60
8789,-20
8790,-56
8791,-102
8792,-93
8793,-71
8794,-68
8795,-69
8796,-69
8797,-71
8798,-72
8799,-73
8800,-74
8801,-74
8802,-75
8803,-75
8804,-76
8805,-77
8806,-78
8807,-80
8808,-81
8809,-82
8810,-84
8811,-85
8812,-87
8813,-88
8814,-90
8815,-92
8816,-94
8817,-96
8818,-98
8819,-100
8820,-102
8821,-104
8822,-106
8823,-108
8824,-110
8825,-112
8826,-114
8827,-116
8828,-118
8829,-119
8830,-120
8831,-121
8832,-122
8833,-122
8834,-122
8835,-121
8836,-120
8837,-119
8838,-117
8839,-116
8840,-114
8841,-112
8842,-110
8843,-108
8844,-107
8845,-106
8846,-105
8847,-105
8848,-106
8849,-107
8850,-109
8851,-111
8852,-113
8853,-115
8854,-115
8855,-115
8856,-112
8857,-108
8858,-104
8859,-99
8860,-95
8861,-92
8862,-92
8863,-95
8864,-102
8865,-111
8866,-121
8867,-129
8868,-133
8869,-130
8870,-118
8871,-94
8872,-57
8873,-7
8874,56
8875,129
8876,209
8877,291
8878,370
8879,441
8880,499
8881,538
8882,556
8883,552
8884,525
8885,476
8886,410
8887,330
8888,243
8889,154
8890,68
8891,-8
8892,-72
8893,-120
8894,-151
8895,-166
8896,-166
8897,-154
8898,-132
8899,-105
8900,-75
8901,-47
8902,-22
8903,-3
8904,10
8905,17
8906,17
8907,13
8908,5
8909,-5
8910,-15
8911,-26
8912,-34
8913,-41
8914,-45
8915,-46
8916,-45
8917,-42
8918,-39
8919,-36
8920,-33
8921,-31
8922,-30
8923,-30
8924,-31
8925,-33
8926,-34
8927,-36
8928,-38
8929,-39
8930,-39
8931,-39
8932,-39
8933,-38
8934,-37
8935,-36
8936,-34
8937,-32
8938,-30
8939,-28
8940,-26
8941,-23
8942,-21
8943,-18
8944,-16
8945,-14
8946,-12
8947,-10
8948,-8
8949,-6
8950,-4
8951,-2
8952,-1
8953,0
8954,2
8955,3
8956,5
8957,6
8958,8
8959,9
8960,11
8961,13
8962,14
8963,16
8964,19
8965,21
8966,23
8967,26
8968,29
8969,32
8970,35
8971,39
8972,43
8973,47
8974,52
8975,57
8976,63
8977,68
8978,75
8979,81
8980,88
8981,95
8982,102
8983,110
8984,118
8985,126
8986,134
8987,142
8988,150
8989,158
8990,167
8991,175
8992,183
8993,191
8994,200
8995,208
8996,217
8997,226
8998,235
8999,245
9000,255
9001,265
9002,276
9003,287
9004,298
9005,309
9006,321
9007,333
9008,344
9009,356
9010,367
9011,378
9012,388
9013,397
9014,405
9015,411
9016,416
9017,419
9018,421
9019,420
9020,418
9021,414
9022,408
9023,400
9024,390
9025,378
9026,364
9027,349
9028,332
9029,314
9030,296
9031,277
9032,257
9033,237
9034,217
9035,197
9036,177
9037,158
9038,139
9039,121
9040,104
9041,88
9042,73
9043,59
9044,47
9045,36
9046,26
9047,17
9048,9
9049,2
9050,-3
9051,-8
9052,-12
9053,-16
9054,-19
9055,-21
9056,-23
9057,-25
9058,-27
9059,-29
9060,-30
9061,-32
9062,-34
9063,-36
9064,-37
9065,-39
9066,-41
9067,-43
9068,-45
9069,-47
9070,-48
9071,-50
9072,-51
9073,-53
9074,-53
9075,-54
9076,-54
9077,-54
9078,-53
9079,-52
9080,-51
9081,-50
9082,-49
9083,-47
9084,-45
9085,-44
9086,-42
9087,-40
9088,-38
9089,-36
9090,-34
9091,-33
9092,-31
9093,-30
9094,-28
9095,-27
9096,-26
9097,-25
9098,-25
9099,-24
9100,-23
9101,-23
9102,-22
9103,-22
9104,-22
9105,-22
9106,-22
9107,-22
9108,-22
9109,-22
9110,-22
9111,-22
9112,-22
9113,-22
9114,-22
9115,-22
9116,-23
9117,-23
9118,-23
9119,-23
9120,-23
9121,-24
9122,-24
9123,-24
9124,-24
9125,-24
9126,-24
9127,-24
9128,-24
9129,-24
9130,-24
9131,-24
9132,-24
9133,-24
9134,-23
9135,-23
9136,-23
9137,-23
9138,-23
9139,-22
9140,-22
9141,-22
9142,-22
9143,-22
9144,-21
9145,-21
9146,-21
9147,-21
9148,-20
9149,-20
9150,-20
9151,-20
9152,-20
9153,-20
9154,-20
9155,-19
9156,-19
9157,-19
9158,-19
9159,-19
9160,-20
9161,-20
9162,-20
9163,-20
9164,-20
9165,-20
9166,-20
9167,-21
9168,-21
9169,-21
9170,-22
9171,-22
9172,-22
9173,-23
9174,-23
9175,-24
9176,-24
9177,-25
9178,-25
9179,-26
9180,-26
9181,-27
9182,-27
9183,-28
9184,-28
9185,-29
9186,-30
9187,-30
9188,-31
9189,-31
9190,-32
9191,-33
9192,-33
9193,-34
9194,-35
9195,-35
9196,-36
9197,-37
9198,-37
9199,-38
9200,-39
9201,-39
9202,-40
9203,-41
9204,-41
9205,-42
9206,-43
9207,-43
9208,-44
9209,-45
9210,-45
9211,-46
9212,-46
9213,-47
9214,-48
9215,-48
9216,-49
9217,-49
9218,-50
9219,-51
9220,-51
9221,-52
9222,-52
9223,-53
9224,-54
9225,-54
9226,-55
9227,-55
9228,-56
9229,-57
9230,-57
9231,-58
9232,-59
9233,-59
9234,-60
9235,-60
9236,-61
9237,-62
9238,-62
9239,-63
9240,-64
9241,-64
9242,-65
9243,-66
9244,-66
9245,-67
9246,-67
9247,-68
9248,-69
9249,-69
9250,-70
9251,-70
9252,-71
9253,-71
9254,-72
9255,-72
9256,-72
9257,-73
9258,-73
9259,-73
9260,-73
9261,-73
9262,-74
9263,-74
9264,-74
9265,-73
9266,-73
9267,-73
9268,-73
9269,-73
9270,-72
9271,-72
9272,-71
9273,-71
9274,-70
9275,-70
9276,-69
9277,-68
9278,-67
9279,-67
9280,-66
9281,-65
9282,-64
9283,-63
9284,-62
9285,-61
9286,-60
9287,-59
9288,-58
9289,-56
9290,-55
9291,-54
9292,-53
9293,-52
9294,-51
9295,-50
9296,-49
9297,-48
9298,-47
9299,-46
9300,-45
9301,-44
9302,-43
9303,-42
9304,-42
9305,-41
9306,-41
9307,-40
9308,-40
9309,-39
9310,-39
9311,-39
9312,-39
9313,-38
9314,-38
9315,-39
9316,-39
9317,-39
9318,-40
9319,-40
9320,-41
9321,-42
9322,-42
9323,-43
9324,-44
9325,-46
9326,-47
9327,-48
9328,-50
9329,-51
9330,-53
9331,-55
9332,-57
9333,-59
9334,-61
9335,-63
9336,-65
9337,-67
9338,-69
9339,-71
9340,-73
9341,-76
9342,-78
9343,-81
9344,-83
9345,-86
9346,-88
9347,-90
9348,-92
9349,-95
9350,-96
9351,-98
9352,-100
9353,-101
9354,-102
9355,-102
9356,-102
9357,-101
9358,-101
9359,-99
9360,-98
9361,-96
9362,-93
9363,-91
9364,-89
9365,-87
9366,-85
9367,-84
9368,-83
9369,-83
9370,-84
9371,-85
9372,-87
9373,-89
9374,-91
9375,-92
9376,-92
9377,-90
9378,-87
9379,-83
9380,-80
9381,-78
9382,-79
9383,-83
9384,-91
9385,-103
9386,-118
9387,-134
9388,-149
9389,-159
9390,-159
9391,-149
9392,-124
9393,-83
9394,-27
9395,43
9396,126
9397,216
9398,307
9399,394
9400,471
9401,533
9402,575
9403,594
9404,588
9405,558
9406,506
9407,436
9408,353
9409,264
9410,173
9411,88
9412,13
9413,-47
9414,-91
9415,-119
9416,-130
9417,-129
9418,-118
9419,-101
9420,-82
9421,-63
9422,-49
9423,-39
9424,-34
9425,-33
9426,-35
9427,-38
9428,-42
9429,-45
9430,-46
9431,-44
9432,-40
9433,-35
9434,-28
9435,-22
9436,-16
9437,-11
9438,-7
9439,-4
9440,-3
9441,-3
9442,-4
9443,-5
9444,-8
9445,-10
9446,-13
9447,-15
9448,-18
9449,-20
9450,-22
9451,-24
9452,-25
9453,-26
9454,-26
9455,-26
9456,-26
9457,-25
9458,-24
9459,-22
9460,-21
9461,-19
9462,-17
9463,-15
9464,-13
9465,-11
9466,-9
9467,-8
9468,-6
9469,-4
9470,-3
9471,-2
9472,-1
9473,0
9474,1
9475,2
9476,3
9477,4
9478,5
9479,6
9480,8
9481,9
9482,10
9483,12
9484,14
9485,16
9486,18
9487,20
9488,23
9489,26
9490,29
9491,32
9492,36
9493,40
9494,44
9495,49
9496,54
9497,60
9498,65
9499,72
9500,78
9501,85
9502,92
9503,99
9504,107
9505,114
9506,122
9507,130
9508,138
9509,146
9510,154
9511,162
9512,170
9513,178
9514,186
9515,194
9516,202
9517,210
9518,218
9519,227
9520,236
9521,246
9522,256
9523,266
9524,276
9525,287
9526,298
9527,308
9528,319
9529,330
9530,341
9531,351
9532,361
9533,369
9534,377
9535,383
9536,388
9537,391
9538,392
9539,392
9540,390
9541,385
9542,379
9543,371
9544,361
9545,349
9546,335
9547,320
9548,303
9549,286
9550,267
9551,248
9552,228
9553,209
9554,189
9555,170
9556,151
9557,133
9558,116
9559,99
9560,84
9561,69
9562,56
9563,44
9564,33
9565,23
9566,14
9567,6
9568,0
9569,-7
9570,-13
9571,-19
9572,-24
9573,-28
9574,-33
9575,-37
9576,-41
9577,-45
9578,-49
9579,-53
9580,-57
9581,-61
9582,-65
9583,-69
9584,-72
9585,-76
9586,-79
9587,-82
9588,-85
9589,-87
9590,-89
9591,-91
9592,-92
9593,-93
9594,-93
9595,-93
9596,-93
9597,-93
9598,-92
9599,-91
9600,-89
9601,-88
9602,-86
9603,-84
9604,-83
9605,-81
9606,-79
9607,-77
9608,-75
9609,-74
9610,-72
9611,-71
9612,-69
9613,-68
9614,-67
9615,-66
9616,-65
9617,-64
9618,-63
9619,-63
9620,-62
9621,-62
9622,-61
9623,-61
9624,-61
9625,-61
9626,-60
9627,-60
9628,-60
9629,-61
9630,-61
9631,-61
9632,-61
9633,-61
9634,-61
9635,-62
9636,-62
9637,-62
9638,-62
9639,-62
9640,-63
9641,-63
9642,-63
9643,-63
9644,-63
9645,-63
9646,-63
9647,-63
9648,-63
9649,-63
9650,-63
9651,-63
9652,-63
9653,-62
9654,-62
9655,-62
9656,-62
9657,-62
9658,-61
9659,-61
9660,-61
9661,-60
9662,-60
9663,-60
9664,-60
9665,-59
9666,-59
9667,-59
9668,-59
9669,-58
9670,-58
9671,-58
9672,-58
9673,-58
9674,-58
9675,-58
9676,-58
9677,-58
9678,-58
9679,-58
9680,-58
9681,-58
9682,-58
9683,-58
9684,-59
9685,-59
9686,-59
9687,-59
9688,-60
9689,-60
9690,-60
9691,-60
9692,-61
9693,-61
9694,-61
9695,-62
9696,-62
9697,-62
9698,-62
9699,-63
9700,-63
9701,-63
9702,-63
9703,-64
9704,-64
9705,-64
9706,-64
9707,-64
9708,-64
9709,-64
9710,-64
9711,-64
9712,-64
9713,-64
9714,-64
9715,-64
9716,-64
9717,-64
9718,-64
9719,-63
9720,-63
9721,-63
9722,-63
9723,-63
9724,-62
9725,-62
9726,-62
9727,-62
9728,-61
9729,-61
9730,-61
9731,-61
9732,-61
9733,-60
9734,-60
9735,-60
9736,-60
9737,-59
9738,-59
9739,-59
9740,-59
9741,-59
9742,-59
9743,-59
9744,-59
9745,-59
9746,-58
9747,-58
9748,-58
9749,-58
9750,-58
9751,-59
9752,-59
9753,-59
9754,-59
9755,-59
9756,-59
9757,-59
9758,-59
9759,-59
9760,-60
9761,-60
9762,-60
9763,-60
9764,-61
9765,-61
9766,-61
9767,-61
9768,-62
9769,-62
9770,-62
9771,-62
9772,-63
9773,-63
9774,-63
9775,-63
9776,-64
9777,-64
9778,-64
9779,-64
9780,-64
9781,-64
9782,-64
9783,-65
9784,-65
9785,-65
9786,-65
9787,-64
9788,-64
9789,-64
9790,-64
9791,-64
9792,-63
9793,-63
9794,-63
9795,-62
9796,-62
9797,-61
9798,-61
9799,-60
9800,-59
9801,-58
9802,-57
9803,-57
9804,-56
9805,-55
9806,-53
9807,-52
9808,-51
9809,-50
9810,-49
9811,-47
9812,-46
9813,-45
9814,-44
9815,-42
9816,-41
9817,-39
9818,-38
9819,-37
9820,-35
9821,-34
9822,-33
9823,-31
9824,-30
9825,-29
9826,-28
9827,-27
9828,-26
9829,-25
9830,-24
9831,-23
9832,-22
9833,-21
9834,-21
9835,-20
9836,-20
9837,-19
9838,-19
9839,-19
9840,-19
9841,-19
9842,-19
9843,-19
9844,-19
9845,-20
9846,-20
9847,-21
9848,-21
9849,-22
9850,-23
9851,-24
9852,-25
9853,-27
9854,-28
9855,-30
9856,-31
9857,-33
9858,-35
9859,-37
9860,-39
9861,-40
9862,-42
9863,-45
9864,-47
9865,-49
9866,-51
9867,-53
9868,-55
9869,-57
9870,-60
9871,-62
9872,-64
9873,-66
9874,-69
9875,-71
9876,-73
9877,-75
9878,-77
9879,-78
9880,-80
9881,-81
9882,-82
9883,-83
9884,-83
9885,-83
9886,-83
9887,-82
9888,-81
9889,-80
9890,-79
9891,-80
9892,-80
9893,-81
9894,-82
9895,-83
9896,-84
9897,-85
9898,-83
9899,-81
9900,-76
9901,-71
9902,-65
9903,-58
9904,-51
9905,-46
9906,-43
9907,-43
9908,-47
9909,-55
9910,-67
9911,-82
9912,-99
9913,-118
9914,-136
9915,-151
9916,-159
9917,-159
9918,-148
9919,-126
9920,-91
9921,-41
9922,20
9923,93
9924,173
9925,256
9926,339
9927,416
9928,482
9929,532
9930,563
9931,573
9932,561
9933,530
9934,483
9935,422
9936,346
9937,257
9938,160
9939,66
9940,-12
9941,-62
9942,-83
9943,-84
9944,-73
9945,-62
9946,-55
9947,-48
9948,-40
9949,-32
9950,-23
9951,-19
9952,-18
9953,-22
9954,-27
9955,-34
9956,-39
9957,-43
9958,-45
9959,-44
9960,-42
9961,-37
9962,-32
9963,-27
9964,-22
9965,-18
9966,-14
9967,-12
9968,-10
9969,-10
9970,-10
9971,-10
9972,-11
9973,-13
9974,-14
9975,-16
9976,-17
9977,-19
9978,-20
9979,-21
9980,-21
9981,-22
9982,-21
9983,-21
9984,-20
9985,-19
9986,-17
9987,-16
9988,-14
9989,-12
9990,-10
9991,-7
9992,-5
9993,-3
9994,0
9995,1
9996,3
9997,5
9998,6
9999,8
10000,10
10001,11
10002,12
10003,14
10004,15
10005,17
10006,18
10007,19
10008,21
10009,22
10010,24
10011,26
10012,27
10013,29
10014,32
10015,34
10016,37
10017,40
10018,43
10019,47
10020,51
10021,55
10022,59
10023,64
10024,69
10025,75
10026,81
10027,87
10028,94
10029,101
10030,108
10031,116
10032,123
10033,131
10034,140
10035,148
10036,156
10037,165
10038,173
10039,182
10040,190
10041,198
10042,207
10043,215
10044,223
10045,232
10046,240
10047,249
10048,257
10049,266
10050,275
10051,285
10052,294
10053,303
10054,313
10055,322
10056,332
10057,341
10058,350
10059,358
10060,366
10061,374
10062,380
10063,385
10064,389
10065,392
10066,393
10067,393
10068,391
10069,388
10070,383
10071,376
10072,368
10073,358
10074,346
10075,333
10076,319
10077,303
10078,286
10079,269
10080,251
10081,232
10082,214
10083,195
10084,176
10085,157
10086,139
10087,121
10088,103
10089,87
10090,71
10091,57
10092,43
10093,31
10094,20
10095,10
10096,1
10097,-7
10098,-14
10099,-20
10100,-26
10101,-30
10102,-34
10103,-37
10104,-40
10105,-42
10106,-44
10107,-47
10108,-48
10109,-50
10110,-52
10111,-54
10112,-56
10113,-58
10114,-59
10115,-61
10116,-63
10117,-65
10118,-67
10119,-68
10120,-70
10121,-71
10122,-72
10123,-73
10124,-74
10125,-74
10126,-74
10127,-73
10128,-73
10129,-72
10130,-71
10131,-70
10132,-69
10133,-68
10134,-66
10135,-65
10136,-63
10137,-62
10138,-61
10139,-60
10140,-59
10141,-58
10142,-57
10143,-56
10144,-56
10145,-55
10146,-55
10147,-54
10148,-54
10149,-54
10150,-54
10151,-54
10152,-54
10153,-54
10154,-54
10155,-54
10156,-54
10157,-54
10158,-54
10159,-54
10160,-54
10161,-55
10162,-55
10163,-55
10164,-55
10165,-55
10166,-55
10167,-55
10168,-55
10169,-55
10170,-55
10171,-55
10172,-55
10173,-55
10174,-55
10175,-55
10176,-55
10177,-55
10178,-55
10179,-55
10180,-55
10181,-55
10182,-55
10183,-55
10184,-55
10185,-55
10186,-55
10187,-55
10188,-55
10189,-55
10190,-56
10191,-56
10192,-56
10193,-56
10194,-56
10195,-57
10196,-57
10197,-57
10198,-58
10199,-58
10200,-59
10201,-59
10202,-60
10203,-60
10204,-61
10205,-61
10206,-62
10207,-62
10208,-63
10209,-63
10210,-64
10211,-64
10212,-65
10213,-65
10214,-66
10215,-66
10216,-66
10217,-67
10218,-67
10219,-68
10220,-68
10221,-68
10222,-69
10223,-69
10224,-69
10225,-69
10226,-69
10227,-70
10228,-70
10229,-70
10230,-70
10231,-70
10232,-70
10233,-70
10234,-70
10235,-70
10236,-70
10237,-70
10238,-70
10239,-70
10240,-70
10241,-70
10242,-70
10243,-70
10244,-70
10245,-70
10246,-70
10247,-71
10248,-71
10249,-71
10250,-71
10251,-71
10252,-71
10253,-71
10254,-71
10255,-71
10256,-71
10257,-71
10258,-71
10259,-72
10260,-72
10261,-72
10262,-72
10263,-72
10264,-72
10265,-72
10266,-73
10267,-73
10268,-73
10269,-73
10270,-73
10271,-73
10272,-73
10273,-74
10274,-74
10275,-74
10276,-74
10277,-74
10278,-74
10279,-74
10280,-74
10281,-75
10282,-75
10283,-75
10284,-75
10285,-75
10286,-75
10287,-75
10288,-75
10289,-75
10290,-76
10291,-76
10292,-76
10293,-76
10294,-76
10295,-76
10296,-76
10297,-76
10298,-77
10299,-77
10300,-77
10301,-77
10302,-77
10303,-77
10304,-78
10305,-78
10306,-78
10307,-78
10308,-78
10309,-78
10310,-78
10311,-78
10312,-79
10313,-79
10314,-79
10315,-79
10316,-79
10317,-79
10318,-79
10319,-79
10320,-78
10321,-78
10322,-78
10323,-78
10324,-77
10325,-77
10326,-77
10327,-76
10328,-76
10329,-75
10330,-74
10331,-74
10332,-73
10333,-72
10334,-71
10335,-70
10336,-69
10337,-68
10338,-67
10339,-66
10340,-64
10341,-63
10342,-62
10343,-61
10344,-59
10345,-58
10346,-56
10347,-55
10348,-53
10349,-52
10350,-50
10351,-49
10352,-47
10353,-46
10354,-44
10355,-43
10356,-41
10357,-40
10358,-38
10359,-37
10360,-36
10361,-34
10362,-33
10363,-32
10364,-31
10365,-30
10366,-29
10367,-28
10368,-27
10369,-26
10370,-25
10371,-25
10372,-24
10373,-24
10374,-23
10375,-23
10376,-23
10377,-23
10378,-23
10379,-23
10380,-23
10381,-23
10382,-24
10383,-24
10384,-25
10385,-25
10386,-26
10387,-27
10388,-28
10389,-30
10390,-31
10391,-32
10392,-34
10393,-35
10394,-37
10395,-39
10396,-41
10397,-43
10398,-45
10399,-47
10400,-49
10401,-51
10402,-53
10403,-56
10404,-58
10405,-61
10406,-63
10407,-66
10408,-68
10409,-71
10410,-73
10411,-76
10412,-78
10413,-80
10414,-82
10415,-83
10416,-85
10417,-86
10418,-86
10419,-87
10420,-87
10421,-86
10422,-85
10423,-84
10424,-83
10425,-82
10426,-81
10427,-79
10428,-78
10429,-77
10430,-77
10431,-77
10432,-77
10433,-79
10434,-81
10435,-83
10436,-86
10437,-88
10438,-89
10439,-90
10440,-89
10441,-86
10442,-82
10443,-77
10444,-71
10445,-68
10446,-66
10447,-67
10448,-72
10449,-81
10450,-92
10451,-103
10452,-113
10453,-117
10454,-112
10455,-96
10456,-67
10457,-24
10458,33
10459,104
10460,184
10461,268
10462,350
10463,426
10464,490
10465,536
10466,562
10467,564
10468,542
10469,499
10470,438
10471,363
10472,281
10473,197
10474,118
10475,48
10476,-8
10477,-49
10478,-74
10479,-85
10480,-84
10481,-74
10482,-58
10483,-41
10484,-25
10485,-13
10486,-6
10487,-4
10488,-6
10489,-10
10490,-17
10491,-24
10492,-29
10493,-32
10494,-33
10495,-32
10496,-30
10497,-26
10498,-22
10499,-17
10500,-14
10501,-11
10502,-10
10503,-9
10504,-10
10505,-11
10506,-12
10507,-14
10508,-16
10509,-18
10510,-21
10511,-23
10512,-24
10513,-26
10514,-27
10515,-28
10516,-28
10517,-28
10518,-28
10519,-27
10520,-26
10521,-24
10522,-22
10523,-20
10524,-18
10525,-16
10526,-13
10527,-11
10528,-8
10529,-5
10530,-3
10531,-1
10532,1
10533,3
10534,5
10535,7
10536,9
10537,10
10538,12
10539,14
10540,16
10541,18
10542,20
10543,21
10544,23
10545,25
10546,28
10547,30
10548,32
10549,35
10550,38
10551,41
10552,44
10553,48
10554,51
10555,55
10556,60
10557,64
10558,69
10559,75
10560,81
10561,87
10562,93
10563,100
10564,107
10565,114
10566,122
10567,130
10568,138
10569,146
10570,154
10571,162
10572,171
10573,179
10574,188
10575,196
10576,205
10577,213
10578,221
10579,230
10580,238
10581,247
10582,255
10583,264
10584,273
10585,282
10586,291
10587,301
10588,310
10589,320
10590,330
10591,340
10592,350
10593,359
10594,369
10595,378
10596,386
10597,394
10598,400
10599,405
10600,409
10601,412
10602,412
10603,412
10604,409
10605,404
10606,398
10607,390
10608,380
10609,368
10610,354
10611,339
10612,322
10613,305
10614,286
10615,267
10616,247
10617,227
10618,207
10619,188
10620,168
10621,150
10622,132
10623,115
10624,99
10625,84
10626,71
10627,59
10628,48
10629,38
10630,29
10631,22
10632,15
10633,9
10634,3
10635,-1
10636,-5
10637,-10
10638,-13
10639,-17
10640,-21
10641,-25
10642,-29
10643,-32
10644,-36
10645,-40
10646,-44
10647,-49
10648,-53
10649,-57
10650,-60
10651,-64
10652,-67
10653,-70
10654,-73
10655,-75
10656,-77
10657,-79
10658,-80
10659,-80
10660,-81
10661,-81
10662,-80
10663,-80
10664,-79
10665,-78
10666,-77
10667,-76
10668,-74
10669,-73
10670,-71
10671,-70
10672,-69
10673,-67
10674,-66
10675,-65
10676,-64
10677,-62
10678,-61
10679,-60
10680,-59
10681,-59
10682,-58
10683,-57
10684,-57
10685,-56
10686,-55
10687,-55
10688,-54
10689,-54
10690,-54
10691,-53
10692,-53
10693,-53
10694,-53
10695,-53
10696,-53
10697,-53
10698,-53
10699,-53
10700,-53
10701,-53
10702,-53
10703,-53
10704,-53
10705,-53
10706,-54
10707,-54
10708,-54
10709,-54
10710,-54
10711,-54
10712,-55
10713,-55
10714,-55
10715,-55
10716,-56
10717,-56
10718,-56
10719,-56
10720,-56
10721,-57
10722,-57
10723,-57
10724,-57
10725,-57
10726,-58
10727,-58
10728,-58
10729,-58
10730,-59
10731,-59
10732,-59
10733,-59
10734,-59
10735,-60
10736,-60
10737,-60
10738,-60
10739,-61
10740,-61
10741,-61
10742,-61
10743,-61
10744,-62
10745,-62
10746,-62
10747,-62
10748,-63
10749,-63
10750,-63
10751,-64
10752,-64
10753,-64
10754,-64
10755,-65
10756,-65
10757,-65
10758,-66
10759,-66
10760,-66
10761,-67
10762,-67
10763,-67
10764,-68
10765,-68
10766,-68
10767,-69
10768,-69
10769,-69
10770,-70
10771,-70
10772,-70
10773,-71
10774,-71
10775,-71
10776,-72
10777,-72
10778,-72
10779,-72
10780,-73
10781,-73
10782,-73
10783,-73
10784,-73
10785,-74
10786,-74
10787,-74
10788,-74
10789,-74
10790,-74
10791,-74
10792,-74
10793,-74
10794,-74
10795,-74
10796,-74
10797,-73
10798,-73
10799,-73
10800,-73
10801,-73
10802,-73
10803,-72
10804,-72
10805,-72
10806,-72
10807,-71
10808,-71
10809,-71
10810,-71
10811,-70
10812,-70
10813,-70
10814,-70
10815,-70
10816,-69
10817,-69
10818,-69
10819,-69
10820,-69
10821,-68
10822,-68
10823,-68
10824,-68
10825,-68
10826,-68
10827,-68
10828,-68
10829,-68
10830,-68
10831,-68
10832,-68
10833,-69
10834,-69
10835,-69
10836,-69
10837,-69
10838,-70
10839,-70
10840,-70
10841,-70
10842,-71
10843,-71
10844,-71
10845,-71
10846,-72
10847,-72
10848,-72
10849,-73
10850,-73
10851,-73
10852,-73
10853,-74
10854,-74
10855,-74
10856,-74
10857,-74
10858,-74
10859,-74
10860,-74
10861,-74
10862,-74
10863,-74
10864,-74
10865,-74
10866,-73
10867,-73
10868,-73
10869,-72
10870,-72
10871,-72
10872,-71
10873,-71
10874,-70
10875,-69
10876,-69
10877,-68
10878,-67
10879,-66
10880,-66
10881,-65
10882,-64
10883,-63
10884,-62
10885,-61
10886,-60
10887,-59
10888,-58
10889,-57
10890,-56
10891,-55
10892,-54
10893,-53
10894,-52
10895,-51
10896,-50
10897,-49
10898,-48
10899,-47
10900,-47
10901,-46
10902,-45
10903,-44
10904,-43
10905,-42
10906,-42
10907,-41
10908,-40
10909,-40
10910,-39
10911,-38
10912,-38
10913,-38
10914,-37
10915,-37
10916,-37
10917,-37
10918,-36
10919,-36
10920,-37
10921,-37
10922,-37
10923,-37
10924,-38
10925,-38
10926,-39
10927,-40
10928,-41
10929,-42
10930,-43
10931,-44
10932,-45
10933,-47
10934,-48
10935,-50
10936,-51
10937,-53
10938,-55
10939,-57
10940,-59
10941,-61
10942,-63
10943,-65
10944,-68
10945,-70
10946,-72
10947,-74
10948,-76
10949,-78
10950,-80
10951,-82
10952,-84
10953,-85
10954,-86
10955,-86
10956,-87
10957,-87
10958,-86
10959,-86
10960,-85
10961,-84
10962,-82
10963,-81
10964,-80
10965,-79
10966,-78
10967,-77
10968,-77
10969,-77
10970,-78
10971,-79
10972,-81
10973,-82
10974,-84
10975,-85
10976,-85
10977,-83
10978,-80
10979,-76
10980,-70
10981,-64
10982,-59
10983,-57
10984,-56
10985,-58
10986,-64
10987,-72
10988,-82
10989,-89
10990,-93
10991,-90
10992,-78
10993,-55
10994,-20
10995,28
10996,89
10997,160
10998,236
10999,314
11000,390
11001,457
11002,511
11003,548
11004,563
11005,557
11006,529
11007,481
11008,416
11009,339
11010,256
11011,172
11012,94
11013,27
11014,-26
11015,-63
11016,-84
11017,-90
11018,-84
11019,-69
11020,-49
11021,-28
11022,-9
11023,4
11024,13
11025,16
11026,15
11027,11
11028,5
11029,0
11030,-5
11031,-9
11032,-9
11033,-8
11034,-6
11035,-3
11036,0
11037,2
11038,5
11039,6
11040,7
11041,6
11042,5
11043,3
11044,1
11045,-1
11046,-4
11047,-6
11048,-8
11049,-11
11050,-12
11051,-14
11052,-15
11053,-16
11054,-16
11055,-16
11056,-15
11057,-15
11058,-13
11059,-12
11060,-10
11061,-9
11062,-7
11063,-5
11064,-3
11065,-1
11066,0
11067,2
11068,4
11069,6
11070,8
11071,9
11072,11
11073,12
11074,14
11075,15
11076,17
11077,18
11078,19
11079,21
11080,22
11081,24
11082,26
11083,28
11084,30
11085,32
11086,34
11087,36
11088,39
11089,42
11090,45
11091,49
11092,52
11093,57
11094,61
11095,66
11096,71
11097,76
11098,82
11099,88
11100,95
11101,101
11102,109
11103,116
11104,123
11105,131
11106,139
11107,147
11108,155
11109,163
11110,171
11111,180
11112,188
11113,196
11114,204
11115,212
11116,219
11117,227
11118,236
11119,244
11120,253
11121,262
11122,271
11123,281
11124,291
11125,301
11126,311
11127,322
11128,333
11129,344
11130,354
11131,365
11132,375
11133,385
11134,393
11135,401
11136,407
11137,412
11138,415
11139,416
11140,415
11141,413
11142,408
11143,402
11144,393
11145,383
11146,370
11147,356
11148,339
11149,322
11150,303
11151,283
11152,263
11153,242
11154,221
11155,200
11156,180
11157,159
11158,140
11159,121
11160,103
11161,86
11162,71
11163,57
11164,45
11165,33
11166,23
11167,15
11168,7
11169,0
11170,-5
11171,-10
11172,-14
11173,-18
11174,-21
11175,-24
11176,-26
11177,-29
11178,-31
11179,-34
11180,-37
11181,-40
11182,-42
11183,-45
11184,-48
11185,-51
11186,-54
11187,-57
11188,-60
11189,-63
11190,-66
11191,-68
11192,-70
11193,-72
11194,-74
11195,-75
11196,-75
11197,-76
11198,-76
11199,-76
11200,-75
11201,-74
11202,-73
11203,-72
11204,-71
11205,-70
11206,-68
11207,-67
11208,-66
11209,-64
11210,-63
11211,-62
11212,-61
11213,-60
11214,-59
11215,-58
11216,-58
11217,-57
11218,-57
11219,-56
11220,-56
11221,-56
11222,-56
11223,-56
11224,-56
11225,-56
11226,-56
11227,-56
11228,-56
11229,-56
11230,-57
11231,-57
11232,-57
11233,-58
11234,-58
11235,-58
11236,-59
11237,-59
11238,-60
11239,-60
11240,-60
11241,-61
11242,-61
11243,-62
11244,-62
11245,-62
11246,-63
11247,-63
11248,-64
11249,-64
11250,-64
11251,-64
11252,-65
11253,-65
11254,-65
11255,-65
11256,-66
11257,-66
11258,-66
11259,-66
11260,-66
11261,-66
11262,-66
11263,-66
11264,-67
11265,-67
11266,-67
11267,-67
11268,-67
11269,-67
11270,-67
11271,-67
11272,-67
11273,-67
11274,-67
11275,-67
11276,-67
11277,-67
11278,-67
11279,-67
11280,-67
11281,-67
11282,-67
11283,-67
11284,-67
11285,-68
11286,-68
11287,-68
11288,-68
11289,-68
11290,-68
11291,-68
11292,-68
11293,-69
11294,-69
11295,-69
11296,-69
11297,-69
11298,-70
11299,-70
11300,-70
11301,-70
11302,-71
11303,-71
11304,-72
11305,-72
11306,-72
11307,-73
11308,-73
11309,-73
11310,-74
11311,-74
11312,-75
11313,-75
11314,-76
11315,-76
11316,-76
11317,-77
11318,-77
11319,-77
11320,-78
11321,-78
11322,-78
11323,-79
11324,-79
11325,-79
11326,-79
11327,-80
11328,-80
11329,-80
11330,-80
11331,-80
11332,-80
11333,-80
11334,-80
11335,-79
11336,-79
11337,-79
11338,-79
11339,-78
11340,-78
11341,-78
11342,-77
11343,-77
11344,-77
11345,-76
11346,-76
11347,-75
11348,-75
11349,-74
11350,-74
11351,-74
11352,-73
11353,-73
11354,-72
11355,-72
11356,-72
11357,-71
11358,-71
11359,-71
11360,-71
11361,-71
11362,-71
11363,-71
11364,-71
11365,-71
11366,-71
11367,-71
11368,-71
11369,-71
11370,-72
11371,-72
11372,-72
11373,-72
11374,-73
11375,-73
11376,-73
11377,-74
11378,-74
11379,-74
11380,-75
11381,-75
11382,-75
11383,-75
11384,-75
11385,-75
11386,-75
11387,-75
11388,-75
11389,-75
11390,-75
11391,-75
11392,-74
11393,-74
11394,-73
11395,-73
11396,-72
11397,-71
11398,-70
11399,-69
11400,-68
11401,-67
11402,-66
11403,-65
11404,-64
11405,-63
11406,-62
11407,-60
11408,-59
11409,-58
11410,-57
11411,-55
11412,-54
11413,-53
11414,-52
11415,-51
11416,-49
11417,-48
11418,-47
11419,-47
11420,-46
11421,-45
11422,-44
11423,-44
11424,-43
11425,-43
11426,-42
11427,-42
11428,-42
11429,-42
11430,-42
11431,-42
11432,-43
11433,-43
11434,-44
11435,-44
11436,-45
11437,-46
11438,-47
11439,-48
11440,-49
11441,-51
11442,-52
11443,-54
11444,-55
11445,-57
11446,-59
11447,-60
11448,-62
11449,-64
11450,-66
11451,-68
11452,-70
11453,-72
11454,-74
11455,-76
11456,-78
11457,-80
11458,-82
11459,-84
11460,-86
11461,-88
11462,-90
11463,-91
11464,-93
11465,-94
11466,-96
11467,-97
11468,-98
11469,-98
11470,-99
11471,-99
11472,-98
11473,-98
11474,-97
11475,-95
11476,-94
11477,-92
11478,-90
11479,-89
11480,-87
11481,-86
11482,-86
11483,-86
11484,-86
11485,-87
11486,-89
11487,-91
11488,-93
11489,-94
11490,-94
11491,-92
11492,-89
11493,-84
11494,-78
11495,-71
11496,-64
11497,-59
11498,-58
11499,-60
11500,-66
11501,-76
11502,-90
11503,-106
11504,-123
11505,-136
11506,-143
11507,-140
11508,-125
11509,-96
11510,-52
11511,6
11512,78
11513,159
11514,245
11515,330
11516,410
11517,478
11518,529
11519,559
11520,567
11521,550
11522,510
11523,450
11524,374
11525,288
11526,198
11527,110
11528,29
11529,-40
11530,-95
11531,-132
11532,-153
11533,-159
11534,-152
11535,-135
11536,-111
11537,-83
11538,-55
11539,-30
11540,-8
11541,7
11542,17
11543,22
11544,22
11545,17
11546,10
11547,1
11548,-8
11549,-16
11550,-24
11551,-29
11552,-32
11553,-32
11554,-30
11555,-27
11556,-24
11557,-20
11558,-17
11559,-14
11560,-13
11561,-13
11562,-14
11563,-15
11564,-17
11565,-18
11566,-19
11567,-20
11568,-21
11569,-21
11570,-20
11571,-20
11572,-19
11573,-17
11574,-16
11575,-14
11576,-12
11577,-10
11578,-8
11579,-6
11580,-3
11581,-1
11582,0
11583,2
11584,4
11585,6
11586,8
11587,10
11588,12
11589,13
11590,15
11591,17
11592,18
11593,20
11594,21
11595,23
11596,24
11597,26
11598,28
11599,30
11600,33
11601,35
11602,38
11603,41
11604,44
11605,47
11606,51
11607,55
11608,59
11609,64
11610,69
11611,74
11612,80
11613,86
11614,92
11615,98
11616,104
11617,110
11618,117
11619,123
11620,129
11621,136
11622,142
11623,149
11624,156
11625,163
11626,169
11627,176
11628,183
11629,190
11630,197
11631,205
11632,213
11633,222
11634,232
11635,242
11636,252
11637,263
11638,275
11639,287
11640,299
11641,312
11642,326
11643,339
11644,352
11645,366
11646,379
11647,391
11648,403
11649,413
11650,422
11651,429
11652,434
11653,438
11654,439
11655,438
11656,435
11657,430
11658,422
11659,412
11660,400
11661,385
11662,369
11663,350
11664,330
11665,309
11666,288
11667,265
11668,243
11669,220
11670,198
11671,176
11672,155
11673,134
11674,115
11675,98
11676,82
11677,68
11678,55
11679,44
11680,34
11681,26
11682,19
11683,13
11684,8
11685,4
11686,1
11687,0
11688,-3
11689,-5
11690,-7
11691,-9
11692,-11
11693,-13
11694,-16
11695,-19
11696,-22
11697,-26
11698,-30
11699,-34
11700,-38
11701,-42
11702,-46
11703,-49
11704,-53
11705,-57
11706,-60
11707,-62
11708,-65
11709,-66
11710,-68
11711,-69
11712,-69
11713,-69
11714,-69
11715,-69
11716,-68
11717,-67
11718,-66
11719,-65
11720,-63
11721,-62
11722,-61
11723,-59
11724,-58
11725,-57
11726,-55
11727,-54
11728,-53
11729,-52
11730,-51
11731,-50
11732,-49
11733,-49
11734,-48
11735,-47
11736,-47
11737,-46
11738,-46
11739,-45
11740,-45
11741,-45
11742,-44
11743,-44
11744,-44
11745,-44
11746,-44
11747,-44
11748,-44
11749,-44
11750,-44
11751,-44
11752,-45
11753,-45
11754,-45
11755,-45
11756,-46
11757,-46
11758,-46
11759,-47
11760,-47
11761,-47
11762,-48
11763,-48
11764,-49
11765,-49
11766,-49
11767,-50
11768,-50
11769,-51
11770,-51
11771,-51
11772,-52
11773,-52
11774,-53
11775,-53
11776,-53
11777,-54
11778,-54
11779,-55
11780,-55
11781,-55
11782,-56
11783,-56
11784,-56
11785,-57
11786,-57
11787,-57
11788,-57
11789,-58
11790,-58
11791,-58
11792,-59
11793,-59
11794,-59
11795,-59
11796,-60
11797,-60
11798,-60
11799,-60
11800,-61
11801,-61
11802,-61
11803,-61
11804,-62
11805,-62
11806,-62
11807,-62
11808,-63
11809,-63
11810,-63
11811,-63
11812,-64
11813,-64
11814,-64
11815,-64
11816,-65
11817,-65
11818,-65
11819,-65
11820,-66
11821,-66
11822,-66
11823,-66
11824,-67
11825,-67
11826,-67
11827,-67
11828,-68
11829,-68
11830,-68
11831,-68
11832,-68
11833,-68
11834,-69
11835,-69
11836,-69
11837,-69
11838,-69
11839,-69
11840,-69
11841,-69
11842,-69
11843,-69
11844,-69
11845,-69
11846,-69
11847,-69
11848,-69
11849,-69
11850,-69
11851,-69
11852,-69
11853,-69
11854,-69
11855,-69
11856,-69
11857,-69
11858,-69
11859,-69
11860,-69
11861,-69
11862,-69
11863,-69
11864,-69
11865,-69
11866,-69
11867,-70
11868,-70
11869,-70
11870,-70
11871,-71
11872,-71
11873,-71
11874,-72
11875,-72
11876,-72
11877,-73
11878,-73
11879,-74
11880,-74
11881,-74
11882,-75
11883,-75
11884,-75
11885,-76
11886,-76
11887,-76
11888,-77
11889,-77
11890,-77
11891,-77
11892,-77
11893,-77
11894,-77
11895,-77
11896,-77
11897,-77
11898,-76
11899,-76
11900,-76
11901,-75
11902,-74
11903,-74
11904,-73
11905,-72
11906,-71
11907,-70
11908,-69
11909,-68
11910,-66
11911,-65
11912,-63
11913,-62
11914,-60
11915,-59
11916,-57
11917,-55
11918,-54
11919,-52
11920,-50
11921,-48
11922,-46
11923,-45
11924,-43
11925,-41
11926,-40
11927,-38
11928,-36
11929,-35
11930,-34
11931,-32
11932,-31
11933,-30
11934,-30
11935,-29
11936,-29
11937,-29
11938,-29
11939,-29
11940,-30
11941,-31
11942,-32
11943,-33
11944,-35
11945,-37
11946,-39
11947,-41
11948,-44
11949,-47
11950,-51
11951,-54
11952,-58
11953,-63
11954,-67
11955,-72
11956,-77
11957,-82
11958,-87
11959,-92
11960,-97
11961,-102
11962,-106
11963,-111
11964,-116
11965,-121
11966,-127
11967,-135
11968,-145
11969,-154
11970,-160
11971,-166
11972,-172
11973,-179
11974,-173
11975,-170
11976,-231
11977,-282
11978,-150
11979,68
11980,71
11981,-186
11982,-432
11983,-410
11984,-192
11985,-69
11986,-131
11987,-215
11988,-204
11989,-110
11990,-58
11991,-154
11992,-253
11993,-203
11994,-125
11995,-129
11996,-149
11997,-145
11998,-137
11999,-128
12000,-116
12001,-107
12002,-100
12003,-96
12004,-98
12005,-102
12006,-110
12007,-119
12008,-126
12009,-128
12010,-123
12011,-109
12012,-82
12013,-43
12014,10
12015,76
12016,148
12017,221
12018,293
12019,363
12020,434
12021,508
12022,575
12023,620
12024,626
12025,587
12026,508
12027,408
12028,306
12029,214
12030,135
12031,66
12032,6
12033,-45
12034,-85
12035,-109
12036,-117
12037,-111
12038,-96
12039,-76
12040,-53
12041,-33
12042,-17
12043,-6
12044,-1
12045,0
